Time(s),X,Y,Z,Pitch,Yaw,FL,FR,RL,RR,Vx,Vy,Vz,Hor_Speed
0.1,0.19774977761063772,0.3485095090563714,100.24,-0.51,1.05,2660,2660,2660,2660,1.98,3.49,2.4,13.36
0.2,0.4219126104167365,0.7435687589522683,100.49919999999999,-0.51,1.05,2720,2720,2720,2720,2.24,3.95,2.59,13.36
0.3,0.6760164390976134,1.1913953085086653,100.77913599999998,-0.51,1.05,2780,2780,2780,2780,2.54,4.48,2.8,13.36
0.4,0.9640604245433744,1.699037183848719,101.08146687999998,-0.51,1.05,2840,2840,2840,2840,2.88,5.08,3.02,13.36
0.5,1.290577887826767,2.2744838023085596,101.40798423039998,-0.51,1.05,2900,2900,2900,2900,3.27,5.75,3.27,13.36
0.6,1.6607076569453005,2.9267917122402323,101.76062296883197,-0.51,1.05,2960,2960,2960,2960,3.7,6.52,3.53,13.36
0.7,2.0802749432096697,3.6662271276368434,102.14147280633853,-0.51,1.05,3020,3020,3020,3020,4.2,7.39,3.81,13.36
0.8,2.555883020134905,4.504427500831813,102.5527906308456,-0.51,1.05,3080,3080,3080,3080,4.76,8.38,4.11,13.36
0.9,3.095017147703636,5.454584676150962,102.99701388131325,-0.51,1.05,3140,3140,3140,3140,5.39,9.5,4.44,13.36
1.0,3.7061623775921277,6.531652507043552,103.47677499181832,-0.51,1.05,3200,3200,3200,3200,6.11,10.77,4.8,13.36
1.1,4.36532830296092,7.69335087056479,103.99491699116378,-0.52,1.05,3260,3260,3260,3260,6.59,11.62,5.18,13.36
1.2,5.024494228329712,8.855049234086028,104.55451035045688,-0.52,1.05,3320,3320,3320,3320,6.59,11.62,5.6,13.36
1.3,5.683660153698504,10.016747597607266,105.15887117849343,-0.52,1.05,3380,3380,3380,3380,6.59,11.62,6.04,13.36
1.4,6.342826079067296,11.178445961128503,105.81158087277291,-0.52,1.05,3440,3440,3440,3440,6.59,11.62,6.53,13.36
1.5,7.001992004436088,12.34014432464974,106.51650734259474,-0.52,1.05,3500,3500,3500,3500,6.59,11.62,7.05,13.36
1.6,7.66115792980488,13.501842688170978,107.27782793000232,-0.52,1.05,3560,3560,3560,3560,6.59,11.62,7.61,13.36
1.7,8.320323855173672,14.663541051692215,108.07782793000231,-0.52,1.05,3620,3620,3620,3620,6.59,11.62,8.0,13.36
1.8,8.979489780542465,15.825239415213453,108.87782793000231,-0.52,1.05,3680,3680,3680,3680,6.59,11.62,8.0,13.36
1.9,9.638655705911258,16.986937778734692,109.67782793000231,-0.52,1.05,3740,3740,3740,3740,6.59,11.62,8.0,13.36
2.0,10.297821631280051,18.14863614225593,110.4778279300023,-0.52,1.05,3800,3800,3800,3800,6.59,11.62,8.0,13.36
2.1,10.956987556648844,19.31033450577717,111.2778279300023,-0.52,1.05,3860,3860,3860,3860,6.59,11.62,8.0,13.36
2.2,11.616153482017637,20.47203286929841,112.0778279300023,-0.52,1.05,3920,3920,3920,3920,6.59,11.62,8.0,13.36
2.3,12.27531940738643,21.63373123281965,112.8778279300023,-0.52,1.05,3980,3980,3980,3980,6.59,11.62,8.0,13.36
2.4,12.934485332755223,22.795429596340888,113.6778279300023,-0.52,1.05,4040,4040,4040,4040,6.59,11.62,8.0,13.36
2.5,13.593651258124016,23.957127959862127,114.47782793000229,-0.52,1.05,4100,4100,4100,4100,6.59,11.62,8.0,13.36
2.6,14.252817183492809,25.118826323383367,115.27782793000229,-0.52,1.05,4160,4160,4160,4160,6.59,11.62,8.0,13.36
2.7,14.911983108861602,26.280524686904606,116.07782793000229,-0.52,1.05,4220,4220,4220,4220,6.59,11.62,8.0,13.36
2.8,15.571149034230395,27.442223050425845,116.87782793000228,-0.52,1.05,4280,4280,4280,4280,6.59,11.62,8.0,13.36
2.9,16.230314959599188,28.603921413947084,117.67782793000228,-0.52,1.05,4340,4340,4340,4340,6.59,11.62,8.0,13.36
3.0,16.88948088496798,29.765619777468324,118.47782793000228,-0.52,1.05,4400,4400,4400,4400,6.59,11.62,8.0,13.36
3.1,17.548646810336773,30.927318140989563,119.27782793000227,-0.52,1.05,4460,4460,4460,4460,6.59,11.62,8.0,13.36
3.2,18.207812735705566,32.0890165045108,120.07782793000227,-0.52,1.05,4520,4520,4520,4520,6.59,11.62,8.0,13.36
3.3,18.86697866107436,33.25071486803204,120.87782793000227,-0.52,1.05,4580,4580,4580,4580,6.59,11.62,8.0,13.36
3.4,19.526144586443152,34.41241323155328,121.67782793000227,-0.52,1.05,4640,4640,4640,4640,6.59,11.62,8.0,13.36
3.5,20.185310511811945,35.57411159507452,122.47782793000226,-0.52,1.05,4700,4700,4700,4700,6.59,11.62,8.0,13.36
3.6,20.844476437180738,36.73580995859576,123.27782793000226,-0.52,1.05,4760,4760,4760,4760,6.59,11.62,8.0,13.36
3.7,21.50364236254953,37.897508322117,124.07782793000226,-0.51,1.05,4820,4820,4820,4820,6.59,11.62,8.0,13.36
3.8,22.162808287918324,39.05920668563824,124.87782793000225,-0.51,1.05,4880,4880,4880,4880,6.59,11.62,8.0,13.36
3.9,22.821974213287117,40.22090504915948,125.67782793000225,-0.51,1.05,4940,4940,4940,4940,6.59,11.62,8.0,13.36
4.0,23.48114013865591,41.382603412680716,126.47782793000225,-0.51,1.05,5000,5000,5000,5000,6.59,11.62,8.0,13.36
4.1,24.140306064024703,42.544301776201955,127.27782793000225,-0.51,1.05,5000,5000,5000,5000,6.59,11.62,8.0,13.36
4.2,24.799471989393496,43.706000139723194,128.07782793000226,-0.51,1.05,5000,5000,5000,5000,6.59,11.62,8.0,13.36
4.3,25.45863791476229,44.86769850324443,128.87782793000227,-0.51,1.05,5000,5000,5000,5000,6.59,11.62,8.0,13.36
4.4,26.11780384013108,46.02939686676567,129.67782793000228,-0.51,1.05,5000,5000,5000,5000,6.59,11.62,8.0,13.36
4.5,26.776969765499874,47.19109523028691,130.4778279300023,-0.51,1.05,5000,5000,5000,5000,6.59,11.62,8.0,13.36
4.6,27.436135690868667,48.35279359380815,131.2778279300023,-0.51,1.05,5000,5000,5000,5000,6.59,11.62,8.0,13.36
4.7,28.09530161623746,49.51449195732939,132.07782793000231,-0.51,1.05,5000,5000,5000,5000,6.59,11.62,8.0,13.36
4.8,28.754467541606253,50.67619032085063,132.87782793000233,-0.51,1.05,5000,5000,5000,5000,6.59,11.62,8.0,13.36
4.9,29.413633466975046,51.83788868437187,133.67782793000234,-0.51,1.05,5000,5000,5000,5000,6.59,11.62,8.0,13.36
5.0,30.07279939234384,52.99958704789311,134.47782793000235,-0.51,1.05,5000,5000,5000,5000,6.59,11.62,8.0,13.36
5.1,30.731965317712632,54.16128541141435,135.27782793000236,-0.51,1.05,5000,5000,5000,5000,6.59,11.62,8.0,13.36
5.2,31.391131243081425,55.32298377493559,136.07782793000237,-0.51,1.05,5000,5000,5000,5000,6.59,11.62,8.0,13.36
5.3,32.050297168450214,56.484682138456826,136.87782793000238,-0.51,1.05,5000,5000,5000,5000,6.59,11.62,8.0,13.36
5.4,32.709463093819004,57.646380501978065,137.6778279300024,-0.51,1.05,5000,5000,5000,5000,6.59,11.62,8.0,13.36
5.5,33.36862901918779,58.808078865499304,138.4778279300024,-0.51,1.05,5000,5000,5000,5000,6.59,11.62,8.0,13.36
5.6,34.02779494455658,59.96977722902054,139.27782793000242,-0.51,1.05,5000,5000,5000,5000,6.59,11.62,8.0,13.36
5.7,34.68696086992537,61.13147559254178,140.07782793000243,-0.51,1.05,5000,5000,5000,5000,6.59,11.62,8.0,13.36
5.8,35.34612679529416,62.29317395606302,140.87782793000244,-0.51,1.05,5000,5000,5000,5000,6.59,11.62,8.0,13.36
5.9,36.00529272066295,63.45487231958426,141.67782793000245,-0.51,1.05,5000,5000,5000,5000,6.59,11.62,8.0,13.36
6.0,36.66445864603174,64.6165706831055,142.47782793000246,-0.51,1.05,5000,5000,5000,5000,6.59,11.62,8.0,13.36
6.1,37.32362457140053,65.77826904662673,143.27782793000247,-0.51,1.05,5000,5000,5000,5000,6.59,11.62,8.0,13.36
6.2,37.98279049676932,66.93996741014797,144.07782793000248,-0.51,1.05,5000,5000,5000,5000,6.59,11.62,8.0,13.36
6.3,38.64195642213811,68.10166577366921,144.8778279300025,-0.51,1.05,5000,5000,5000,5000,6.59,11.62,8.0,13.36
6.4,39.3011223475069,69.26336413719045,145.6778279300025,-0.51,1.05,5000,5000,5000,5000,6.59,11.62,8.0,13.36
6.5,39.96028827287569,70.42506250071169,146.47782793000252,-0.51,1.05,5000,5000,5000,5000,6.59,11.62,8.0,13.36
6.6,40.619454198244476,71.58676086423293,147.27782793000253,-0.51,1.05,5000,5000,5000,5000,6.59,11.62,8.0,13.36
6.7,41.278620123613265,72.74845922775417,148.07782793000254,-0.51,1.05,5000,5000,5000,5000,6.59,11.62,8.0,13.36
6.8,41.937786048982055,73.91015759127541,148.87782793000255,-0.51,1.05,5000,5000,5000,5000,6.59,11.62,8.0,13.36
6.9,42.596951974350844,75.07185595479665,149.67782793000256,-0.51,1.05,5000,5000,5000,5000,6.59,11.62,8.0,13.36
7.0,43.256117899719634,76.23355431831789,150.47782793000258,-0.51,1.05,5000,5000,5000,5000,6.59,11.62,8.0,13.36
7.1,43.91528382508842,77.39525268183912,151.2778279300026,-0.51,1.05,5000,5000,5000,5000,6.59,11.62,8.0,13.36
7.2,44.57444975045721,78.55695104536036,152.0778279300026,-0.51,1.05,5000,5000,5000,5000,6.59,11.62,8.0,13.36
7.3,45.233615675826,79.7186494088816,152.8778279300026,-0.51,1.05,5000,5000,5000,5000,6.59,11.62,8.0,13.36
7.4,45.89278160119479,80.88034777240284,153.67782793000262,-0.51,1.05,5000,5000,5000,5000,6.59,11.62,8.0,13.36
7.5,46.55194752656358,82.04204613592408,154.47782793000263,-0.51,1.05,5000,5000,5000,5000,6.59,11.62,8.0,13.36
7.6,47.21111345193237,83.20374449944532,155.27782793000264,-0.51,1.05,5000,5000,5000,5000,6.59,11.62,8.0,13.36
7.7,47.87027937730116,84.36544286296656,156.07782793000266,-0.51,1.05,5000,5000,5000,5000,6.59,11.62,8.0,13.36
7.8,48.52944530266995,85.5271412264878,156.87782793000267,-0.51,1.05,5000,5000,5000,5000,6.59,11.62,8.0,13.36
7.9,49.18861122803874,86.68883959000904,157.67782793000268,-0.51,1.05,5000,5000,5000,5000,6.59,11.62,8.0,13.36
8.0,49.84777715340753,87.85053795353028,158.4778279300027,-0.51,1.05,5000,5000,5000,5000,6.59,11.62,8.0,13.36
8.1,50.50694307877632,89.01223631705152,159.2778279300027,-0.51,1.05,5000,5000,5000,5000,6.59,11.62,8.0,13.36
8.2,51.166109004145106,90.17393468057276,160.0778279300027,-0.51,1.05,5000,5000,5000,5000,6.59,11.62,8.0,13.36
8.3,51.825274929513895,91.335633044094,160.87782793000272,-0.51,1.05,5000,5000,5000,5000,6.59,11.62,8.0,13.36
8.4,52.484440854882685,92.49733140761523,161.67782793000274,-0.51,1.05,5000,5000,5000,5000,6.59,11.62,8.0,13.36
8.5,53.143606780251474,93.65902977113647,162.47782793000275,-0.51,1.05,5000,5000,5000,5000,6.59,11.62,8.0,13.36
8.6,53.802772705620264,94.82072813465771,163.27782793000276,-0.51,1.05,5000,5000,5000,5000,6.59,11.62,8.0,13.36
8.7,54.46193863098905,95.98242649817895,164.07782793000277,-0.51,1.05,5000,5000,5000,5000,6.59,11.62,8.0,13.36
8.8,55.12110455635784,97.14412486170019,164.87782793000278,-0.51,1.05,5000,5000,5000,5000,6.59,11.62,8.0,13.36
8.9,55.78027048172663,98.30582322522143,165.6778279300028,-0.51,1.05,5000,5000,5000,5000,6.59,11.62,8.0,13.36
9.0,56.43943640709542,99.46752158874267,166.4778279300028,-0.51,1.05,5000,5000,5000,5000,6.59,11.62,8.0,13.36
9.1,57.09860233246421,100.62921995226391,167.27782793000281,-0.51,1.05,5000,5000,5000,5000,6.59,11.62,8.0,13.36
9.2,57.757768257833,101.79091831578515,168.07782793000283,-0.51,1.05,5000,5000,5000,5000,6.59,11.62,8.0,13.36
9.3,58.41693418320179,102.95261667930639,168.87782793000284,-0.51,1.05,5000,5000,5000,5000,6.59,11.62,8.0,13.36
9.4,59.07610010857058,104.11431504282763,169.67782793000285,-0.51,1.05,5000,5000,5000,5000,6.59,11.62,8.0,13.36
9.5,59.73526603393937,105.27601340634887,170.47782793000286,-0.51,1.05,5000,5000,5000,5000,6.59,11.62,8.0,13.36
9.6,60.39443195930816,106.4377117698701,171.27782793000287,-0.51,1.05,5000,5000,5000,5000,6.59,11.62,8.0,13.36
9.7,61.05359788467695,107.59941013339134,172.07782793000288,-0.51,1.05,5000,5000,5000,5000,6.59,11.62,8.0,13.36
9.8,61.712763810045736,108.76110849691258,172.8778279300029,-0.51,1.05,5000,5000,5000,5000,6.59,11.62,8.0,13.36
9.9,62.371929735414525,109.92280686043382,173.6778279300029,-0.51,1.05,5000,5000,5000,5000,6.59,11.62,8.0,13.36
10.0,63.031095660783315,111.08450522395506,174.47782793000292,-0.51,1.05,5000,5000,5000,5000,6.59,11.62,8.0,13.36
10.1,63.690261586152104,112.2462035874763,175.27782793000293,-0.51,1.05,5000,5000,5000,5000,6.59,11.62,8.0,13.36
10.2,64.3494275115209,113.40790195099754,176.07782793000294,-0.51,1.05,5000,5000,5000,5000,6.59,11.62,8.0,13.36
10.3,65.0085934368897,114.56960031451878,176.87782793000295,-0.51,1.05,5000,5000,5000,5000,6.59,11.62,8.0,13.36
10.4,65.6677593622585,115.73129867804002,177.67782793000296,-0.51,1.05,5000,5000,5000,5000,6.59,11.62,8.0,13.36
10.5,66.32692528762729,116.89299704156126,178.47782793000297,-0.51,1.05,5000,5000,5000,5000,6.59,11.62,8.0,13.36
10.6,66.98609121299609,118.0546954050825,179.27782793000299,-0.51,1.05,5000,5000,5000,5000,6.59,11.62,8.0,13.36
10.7,67.64525713836488,119.21639376860374,180.077827930003,-0.51,1.05,5000,5000,5000,5000,6.59,11.62,8.0,13.36
10.8,68.30442306373368,120.37809213212498,180.877827930003,-0.51,1.05,5000,5000,5000,5000,6.59,11.62,8.0,13.36
10.9,68.96358898910248,121.53979049564622,181.67782793000302,-0.51,1.05,5000,5000,5000,5000,6.59,11.62,8.0,13.36
11.0,69.62275491447127,122.70148885916745,182.47782793000303,-0.51,1.05,5000,5000,5000,5000,6.59,11.62,8.0,13.36
11.1,70.28192083984007,123.8631872226887,183.27782793000304,-0.51,1.05,5000,5000,5000,5000,6.59,11.62,8.0,13.36
11.2,70.94108676520887,125.02488558620993,184.07782793000305,-0.51,1.05,5000,5000,5000,5000,6.59,11.62,8.0,13.36
11.3,71.60025269057766,126.18658394973117,184.87782793000306,-0.51,1.05,5000,5000,5000,5000,6.59,11.62,8.0,13.36
11.4,72.25941861594646,127.34828231325241,185.67782793000308,-0.51,1.05,5000,5000,5000,5000,6.59,11.62,8.0,13.36
11.5,72.91858454131525,128.50998067677364,186.4778279300031,-0.5,1.05,5000,5000,5000,5000,6.59,11.62,8.0,13.36
11.6,73.57775046668405,129.67167904029486,187.2778279300031,-0.5,1.05,5000,5000,5000,5000,6.59,11.62,8.0,13.36
11.7,74.23691639205285,130.8333774038161,188.0778279300031,-0.5,1.05,5000,5000,5000,5000,6.59,11.62,8.0,13.36
11.8,74.89608231742164,131.9950757673373,188.87782793000312,-0.5,1.05,5000,5000,5000,5000,6.59,11.62,8.0,13.36
11.9,75.55524824279044,133.15677413085854,189.67782793000313,-0.5,1.05,5000,5000,5000,5000,6.59,11.62,8.0,13.36
12.0,76.21441416815924,134.31847249437976,190.47782793000314,-0.5,1.05,5000,5000,5000,5000,6.59,11.62,8.0,13.36
12.1,76.87358009352803,135.480170857901,191.27782793000316,-0.5,1.05,5000,5000,5000,5000,6.59,11.62,8.0,13.36
12.2,77.53274601889683,136.6418692214222,192.07782793000317,-0.5,1.05,5000,5000,5000,5000,6.59,11.62,8.0,13.36
12.3,78.19191194426563,137.80356758494344,192.87782793000318,-0.5,1.05,5000,5000,5000,5000,6.59,11.62,8.0,13.36
12.4,78.85107786963442,138.96526594846466,193.6778279300032,-0.5,1.05,5000,5000,5000,5000,6.59,11.62,8.0,13.36
12.5,79.51024379500322,140.1269643119859,194.4778279300032,-0.5,1.05,5000,5000,5000,5000,6.59,11.62,8.0,13.36
12.6,80.16940972037202,141.2886626755071,195.2778279300032,-0.5,1.05,5000,5000,5000,5000,6.59,11.62,8.0,13.36
12.7,80.82857564574081,142.45036103902834,196.07782793000322,-0.5,1.05,5000,5000,5000,5000,6.59,11.62,8.0,13.36
12.8,81.48774157110961,143.61205940254956,196.87782793000324,-0.5,1.05,5000,5000,5000,5000,6.59,11.62,8.0,13.36
12.9,82.1469074964784,144.7737577660708,197.67782793000325,-0.5,1.05,5000,5000,5000,5000,6.59,11.62,8.0,13.36
13.0,82.8060734218472,145.935456129592,198.47782793000326,-0.5,1.05,5000,5000,5000,5000,6.59,11.62,8.0,13.36
13.1,83.465239347216,147.09715449311324,199.27782793000327,-0.5,1.05,5000,5000,5000,5000,6.59,11.62,8.0,13.36
13.2,84.1244052725848,148.25885285663446,200.07782793000328,-0.5,1.05,5000,5000,5000,5000,6.59,11.62,8.0,13.36
13.3,84.78357119795359,149.4205512201557,200.8778279300033,-0.5,1.05,5000,5000,5000,5000,6.59,11.62,8.0,13.36
13.4,85.44273712332239,150.5822495836769,201.6778279300033,-0.5,1.05,5000,5000,5000,5000,6.59,11.62,8.0,13.36
13.5,86.10190304869118,151.74394794719814,202.47782793000331,-0.5,1.05,5000,5000,5000,5000,6.59,11.62,8.0,13.36
13.6,86.76106897405998,152.90564631071936,203.27782793000333,-0.5,1.05,5000,5000,5000,5000,6.59,11.62,8.0,13.36
13.7,87.42023489942878,154.0673446742406,204.07782793000334,-0.5,1.05,5000,5000,5000,5000,6.59,11.62,8.0,13.36
13.8,88.07940082479757,155.2290430377618,204.87782793000335,-0.5,1.05,5000,5000,5000,5000,6.59,11.62,8.0,13.36
13.9,88.73856675016637,156.39074140128304,205.67782793000336,-0.5,1.05,5000,5000,5000,5000,6.59,11.62,8.0,13.36
14.0,89.39773267553517,157.55243976480426,206.47782793000337,-0.5,1.05,5000,5000,5000,5000,6.59,11.62,8.0,13.36
14.1,90.05689860090396,158.7141381283255,207.27782793000338,-0.5,1.05,5000,5000,5000,5000,6.59,11.62,8.0,13.36
14.2,90.71606452627276,159.8758364918467,208.0778279300034,-0.5,1.05,5000,5000,5000,5000,6.59,11.62,8.0,13.36
14.3,91.37523045164156,161.03753485536794,208.8778279300034,-0.5,1.05,5000,5000,5000,5000,6.59,11.62,8.0,13.36
14.4,92.03439637701035,162.19923321888916,209.67782793000342,-0.5,1.05,5000,5000,5000,5000,6.59,11.62,8.0,13.36
14.5,92.69356230237915,163.3609315824104,210.47782793000343,-0.5,1.05,5000,5000,5000,5000,6.59,11.62,8.0,13.36
14.6,93.35272822774795,164.5226299459316,211.27782793000344,-0.5,1.05,5000,5000,5000,5000,6.59,11.62,8.0,13.36
14.7,94.01189415311674,165.68432830945284,212.07782793000345,-0.5,1.05,5000,5000,5000,5000,6.59,11.62,8.0,13.36
14.8,94.67106007848554,166.84602667297406,212.87782793000346,-0.5,1.05,5000,5000,5000,5000,6.59,11.62,8.0,13.36
14.9,95.33022600385434,168.0077250364953,213.67782793000347,-0.5,1.05,5000,5000,5000,5000,6.59,11.62,8.0,13.36
15.0,95.98939192922313,169.1694234000165,214.47782793000349,-0.5,1.05,5000,5000,5000,5000,6.59,11.62,8.0,13.36
15.1,96.64855785459193,170.33112176353774,215.2778279300035,-0.5,1.05,5000,5000,5000,5000,6.59,11.62,8.0,13.36
15.2,97.30772377996072,171.49282012705896,216.0778279300035,-0.5,1.05,5000,5000,5000,5000,6.59,11.62,8.0,13.36
15.3,97.96688970532952,172.6545184905802,216.87782793000352,-0.5,1.05,5000,5000,5000,5000,6.59,11.62,8.0,13.36
15.4,98.62605563069832,173.8162168541014,217.67782793000353,-0.5,1.05,5000,5000,5000,5000,6.59,11.62,8.0,13.36
15.5,99.28522155606711,174.97791521762264,218.47782793000354,-0.5,1.05,5000,5000,5000,5000,6.59,11.62,8.0,13.36
15.6,99.94438748143591,176.13961358114386,219.27782793000355,-0.5,1.05,5000,5000,5000,5000,6.59,11.62,8.0,13.36
15.7,100.6035534068047,177.3013119446651,220.07782793000356,-0.5,1.05,5000,5000,5000,5000,6.59,11.62,8.0,13.36
15.8,101.2627193321735,178.4630103081863,220.87782793000358,-0.5,1.05,5000,5000,5000,5000,6.59,11.62,8.0,13.36
15.9,101.9218852575423,179.62470867170754,221.6778279300036,-0.49,1.05,5000,5000,5000,5000,6.59,11.62,8.0,13.36
16.0,102.5810511829111,180.78640703522876,222.4778279300036,-0.49,1.05,5000,5000,5000,5000,6.59,11.62,8.0,13.36
16.1,103.2402171082799,181.94810539875,223.2778279300036,-0.49,1.05,5000,5000,5000,5000,6.59,11.62,8.0,13.36
16.2,103.89938303364869,183.1098037622712,224.07782793000362,-0.49,1.05,5000,5000,5000,5000,6.59,11.62,8.0,13.36
16.3,104.55854895901749,184.27150212579244,224.87782793000363,-0.49,1.05,5000,5000,5000,5000,6.59,11.62,8.0,13.36
16.4,105.21771488438628,185.43320048931366,225.67782793000364,-0.49,1.05,5000,5000,5000,5000,6.59,11.62,8.0,13.36
16.5,105.87688080975508,186.5948988528349,226.47782793000366,-0.49,1.05,5000,5000,5000,5000,6.59,11.62,8.0,13.36
16.6,106.53604673512388,187.7565972163561,227.27782793000367,-0.49,1.05,5000,5000,5000,5000,6.59,11.62,8.0,13.36
16.7,107.19521266049267,188.91829557987734,228.07782793000368,-0.49,1.05,5000,5000,5000,5000,6.59,11.62,8.0,13.36
16.8,107.85437858586147,190.07999394339856,228.8778279300037,-0.49,1.05,5000,5000,5000,5000,6.59,11.62,8.0,13.36
16.9,108.51354451123026,191.2416923069198,229.6778279300037,-0.49,1.05,5000,5000,5000,5000,6.59,11.62,8.0,13.36
17.0,109.17271043659906,192.403390670441,230.4778279300037,-0.49,1.05,5000,5000,5000,5000,6.59,11.62,8.0,13.36
17.1,109.83187636196786,193.56508903396224,231.27782793000372,-0.49,1.05,5000,5000,5000,5000,6.59,11.62,8.0,13.36
17.2,110.49104228733665,194.7267873974835,232.07782793000374,-0.49,1.05,5000,5000,5000,5000,6.59,11.62,8.0,13.36
17.3,111.15020821270545,195.88848576100474,232.87782793000375,-0.49,1.05,5000,5000,5000,5000,6.59,11.62,8.0,13.36
17.4,111.80937413807425,197.05018412452597,233.67782793000376,-0.49,1.05,5000,5000,5000,5000,6.59,11.62,8.0,13.36
17.5,112.46854006344304,198.21188248804722,234.47782793000377,-0.49,1.05,5000,5000,5000,5000,6.59,11.62,8.0,13.36
17.6,113.12770598881184,199.37358085156848,235.27782793000378,-0.49,1.05,5000,5000,5000,5000,6.59,11.62,8.0,13.36
17.7,113.78687191418064,200.53527921508973,236.0778279300038,-0.49,1.05,5000,5000,5000,5000,6.59,11.62,8.0,13.36
17.8,114.44603783954943,201.69697757861098,236.8778279300038,-0.49,1.05,5000,5000,5000,5000,6.59,11.62,8.0,13.36
