Time(s),X,Y,Z,Pitch,Yaw,FL,FR,RL,RR,Vx,Vy,Vz,Hor_Speed
0.1,0.14234969136070813,0.4419353163159239,100.24,-0.48,1.26,2160,2160,2160,2160,1.42,4.42,2.4,15.48
0.2,0.3067301537275714,0.9522668171280813,100.49919999999999,-0.48,1.26,2220,2220,2220,2220,1.64,5.1,2.59,15.48
0.3,0.49655098262894104,1.5415798480310263,100.77913599999998,-0.48,1.26,2280,2280,2280,2280,1.9,5.89,2.8,15.48
0.4,0.7157494601486549,2.222097997193537,101.08146687999998,-0.48,1.26,2340,2340,2340,2340,2.19,6.81,3.02,15.48
0.5,0.9688722224137281,3.0079366382125547,101.40798423039998,-0.48,1.26,2400,2400,2400,2400,2.53,7.86,3.27,15.48
0.6,1.2611695663628366,3.9153957125643624,101.76062296883197,-0.48,1.26,2460,2460,2460,2460,2.92,9.07,3.53,15.48
0.7,1.5987043519157536,4.9632978245750525,102.14147280633853,-0.48,1.26,2520,2520,2520,2520,3.38,10.48,3.81,15.48
0.8,1.9884777584031206,6.173378661709036,102.5527906308456,-0.48,1.26,2580,2580,2580,2580,3.9,12.1,4.11,15.48
0.9,2.438574503708646,7.570737838311157,102.99701388131325,-0.48,1.26,2640,2640,2640,2640,4.5,13.97,4.44,15.48
1.0,2.9130734749110063,9.043855559364236,103.47677499181832,-0.48,1.26,2700,2700,2700,2700,4.74,14.73,4.8,15.48
1.1,3.3875724461133667,10.516973280417314,103.99491699116378,-0.48,1.26,2760,2760,2760,2760,4.74,14.73,5.18,15.48
1.2,3.862071417315727,11.990091001470393,104.55451035045688,-0.48,1.26,2820,2820,2820,2820,4.74,14.73,5.6,15.48
1.3,4.336570388518087,13.463208722523472,105.15887117849343,-0.48,1.26,2880,2880,2880,2880,4.74,14.73,6.04,15.48
1.4,4.811069359720447,14.93632644357655,105.81158087277291,-0.48,1.26,2940,2940,2940,2940,4.74,14.73,6.53,15.48
1.5,5.285568330922807,16.40944416462963,106.51650734259474,-0.48,1.26,3000,3000,3000,3000,4.74,14.73,7.05,15.48
1.6,5.760067302125167,17.88256188568271,107.27782793000232,-0.48,1.26,3060,3060,3060,3060,4.74,14.73,7.61,15.48
1.7,6.234566273327527,19.355679606735787,108.07782793000231,-0.48,1.26,3120,3120,3120,3120,4.74,14.73,8.0,15.48
1.8,6.709065244529887,20.828797327788866,108.87782793000231,-0.48,1.26,3180,3180,3180,3180,4.74,14.73,8.0,15.48
1.9,7.183564215732247,22.301915048841945,109.67782793000231,-0.48,1.26,3240,3240,3240,3240,4.74,14.73,8.0,15.48
2.0,7.658063186934607,23.775032769895024,110.4778279300023,-0.48,1.26,3300,3300,3300,3300,4.74,14.73,8.0,15.48
2.1,8.132562158136967,25.248150490948102,111.2778279300023,-0.48,1.26,3360,3360,3360,3360,4.74,14.73,8.0,15.48
2.2,8.607061129339327,26.72126821200118,112.0778279300023,-0.48,1.26,3420,3420,3420,3420,4.74,14.73,8.0,15.48
2.3,9.081560100541687,28.19438593305426,112.8778279300023,-0.48,1.26,3480,3480,3480,3480,4.74,14.73,8.0,15.48
2.4,9.556059071744047,29.66750365410734,113.6778279300023,-0.48,1.26,3540,3540,3540,3540,4.74,14.73,8.0,15.48
2.5,10.030558042946407,31.140621375160418,114.47782793000229,-0.48,1.26,3600,3600,3600,3600,4.74,14.73,8.0,15.48
2.6,10.505057014148766,32.6137390962135,115.27782793000229,-0.48,1.26,3660,3660,3660,3660,4.74,14.73,8.0,15.48
2.7,10.979555985351126,34.08685681726658,116.07782793000229,-0.48,1.26,3720,3720,3720,3720,4.74,14.73,8.0,15.48
2.8,11.454054956553486,35.55997453831966,116.87782793000228,-0.48,1.26,3780,3780,3780,3780,4.74,14.73,8.0,15.48
2.9,11.928553927755846,37.03309225937274,117.67782793000228,-0.48,1.26,3840,3840,3840,3840,4.74,14.73,8.0,15.48
3.0,12.403052898958206,38.506209980425815,118.47782793000228,-0.48,1.26,3900,3900,3900,3900,4.74,14.73,8.0,15.48
3.1,12.877551870160566,39.979327701478894,119.27782793000227,-0.48,1.26,3960,3960,3960,3960,4.74,14.73,8.0,15.48
3.2,13.352050841362926,41.45244542253197,120.07782793000227,-0.48,1.26,4020,4020,4020,4020,4.74,14.73,8.0,15.48
3.3,13.826549812565286,42.92556314358505,120.87782793000227,-0.48,1.26,4080,4080,4080,4080,4.74,14.73,8.0,15.48
3.4,14.301048783767646,44.39868086463813,121.67782793000227,-0.48,1.26,4140,4140,4140,4140,4.74,14.73,8.0,15.48
3.5,14.775547754970006,45.87179858569121,122.47782793000226,-0.48,1.26,4200,4200,4200,4200,4.74,14.73,8.0,15.48
3.6,15.250046726172366,47.34491630674429,123.27782793000226,-0.48,1.26,4260,4260,4260,4260,4.74,14.73,8.0,15.48
3.7,15.724545697374726,48.81803402779737,124.07782793000226,-0.48,1.26,4320,4320,4320,4320,4.74,14.73,8.0,15.48
3.8,16.199044668577088,50.291151748850446,124.87782793000225,-0.48,1.26,4380,4380,4380,4380,4.74,14.73,8.0,15.48
3.9,16.67354363977945,51.764269469903525,125.67782793000225,-0.48,1.26,4440,4440,4440,4440,4.74,14.73,8.0,15.48
4.0,17.14804261098181,53.2373871909566,126.47782793000225,-0.48,1.26,4500,4500,4500,4500,4.74,14.73,8.0,15.48
4.1,17.622541582184173,54.71050491200968,127.27782793000225,-0.48,1.26,4560,4560,4560,4560,4.74,14.73,8.0,15.48
4.2,18.097040553386535,56.18362263306276,128.07782793000226,-0.48,1.26,4620,4620,4620,4620,4.74,14.73,8.0,15.48
4.3,18.571539524588896,57.65674035411584,128.87782793000227,-0.48,1.26,4680,4680,4680,4680,4.74,14.73,8.0,15.48
4.4,19.046038495791258,59.12985807516892,129.67782793000228,-0.48,1.26,4740,4740,4740,4740,4.74,14.73,8.0,15.48
4.5,19.52053746699362,60.602975796222,130.4778279300023,-0.48,1.26,4800,4800,4800,4800,4.74,14.73,8.0,15.48
4.6,19.99503643819598,62.076093517275076,131.2778279300023,-0.48,1.26,4860,4860,4860,4860,4.74,14.73,8.0,15.48
4.7,20.469535409398343,63.549211238328155,132.07782793000231,-0.48,1.26,4920,4920,4920,4920,4.74,14.73,8.0,15.48
4.8,20.944034380600705,65.02232895938124,132.87782793000233,-0.48,1.26,4980,4980,4980,4980,4.74,14.73,8.0,15.48
4.9,21.418533351803067,66.49544668043433,133.67782793000234,-0.48,1.26,5000,5000,5000,5000,4.74,14.73,8.0,15.48
5.0,21.89303232300543,67.96856440148741,134.47782793000235,-0.48,1.26,5000,5000,5000,5000,4.74,14.73,8.0,15.48
5.1,22.36753129420779,69.4416821225405,135.27782793000236,-0.48,1.26,5000,5000,5000,5000,4.74,14.73,8.0,15.48
5.2,22.842030265410152,70.91479984359358,136.07782793000237,-0.48,1.26,5000,5000,5000,5000,4.74,14.73,8.0,15.48
5.3,23.316529236612514,72.38791756464667,136.87782793000238,-0.48,1.26,5000,5000,5000,5000,4.74,14.73,8.0,15.48
5.4,23.791028207814875,73.86103528569976,137.6778279300024,-0.48,1.26,5000,5000,5000,5000,4.74,14.73,8.0,15.48
5.5,24.265527179017237,75.33415300675284,138.4778279300024,-0.48,1.26,5000,5000,5000,5000,4.74,14.73,8.0,15.48
5.6,24.7400261502196,76.80727072780593,139.27782793000242,-0.48,1.26,5000,5000,5000,5000,4.74,14.73,8.0,15.48
5.7,25.21452512142196,78.28038844885901,140.07782793000243,-0.48,1.26,5000,5000,5000,5000,4.74,14.73,8.0,15.48
5.8,25.689024092624322,79.7535061699121,140.87782793000244,-0.48,1.26,5000,5000,5000,5000,4.74,14.73,8.0,15.48
5.9,26.163523063826684,81.22662389096519,141.67782793000245,-0.48,1.26,5000,5000,5000,5000,4.74,14.73,8.0,15.48
6.0,26.638022035029046,82.69974161201827,142.47782793000246,-0.48,1.26,5000,5000,5000,5000,4.74,14.73,8.0,15.48
6.1,27.112521006231407,84.17285933307136,143.27782793000247,-0.48,1.26,5000,5000,5000,5000,4.74,14.73,8.0,15.48
6.2,27.58701997743377,85.64597705412444,144.07782793000248,-0.48,1.26,5000,5000,5000,5000,4.74,14.73,8.0,15.48
6.3,28.06151894863613,87.11909477517753,144.8778279300025,-0.48,1.26,5000,5000,5000,5000,4.74,14.73,8.0,15.48
6.4,28.536017919838493,88.59221249623062,145.6778279300025,-0.48,1.26,5000,5000,5000,5000,4.74,14.73,8.0,15.48
6.5,29.010516891040854,90.0653302172837,146.47782793000252,-0.48,1.26,5000,5000,5000,5000,4.74,14.73,8.0,15.48
6.6,29.485015862243216,91.53844793833679,147.27782793000253,-0.48,1.26,5000,5000,5000,5000,4.74,14.73,8.0,15.48
6.7,29.959514833445578,93.01156565938987,148.07782793000254,-0.48,1.26,5000,5000,5000,5000,4.74,14.73,8.0,15.48
6.8,30.43401380464794,94.48468338044296,148.87782793000255,-0.48,1.26,5000,5000,5000,5000,4.74,14.73,8.0,15.48
6.9,30.9085127758503,95.95780110149605,149.67782793000256,-0.48,1.26,5000,5000,5000,5000,4.74,14.73,8.0,15.48
7.0,31.383011747052663,97.43091882254913,150.47782793000258,-0.48,1.26,5000,5000,5000,5000,4.74,14.73,8.0,15.48
7.1,31.857510718255025,98.90403654360222,151.2778279300026,-0.48,1.26,5000,5000,5000,5000,4.74,14.73,8.0,15.48
7.2,32.33200968945739,100.3771542646553,152.0778279300026,-0.48,1.26,5000,5000,5000,5000,4.74,14.73,8.0,15.48
7.3,32.806508660659745,101.85027198570839,152.8778279300026,-0.48,1.26,5000,5000,5000,5000,4.74,14.73,8.0,15.48
7.4,33.2810076318621,103.32338970676147,153.67782793000262,-0.48,1.26,5000,5000,5000,5000,4.74,14.73,8.0,15.48
7.5,33.75550660306446,104.79650742781456,154.47782793000263,-0.48,1.26,5000,5000,5000,5000,4.74,14.73,8.0,15.48
7.6,34.23000557426682,106.26962514886765,155.27782793000264,-0.48,1.26,5000,5000,5000,5000,4.74,14.73,8.0,15.48
7.7,34.70450454546918,107.74274286992073,156.07782793000266,-0.48,1.26,5000,5000,5000,5000,4.74,14.73,8.0,15.48
7.8,35.179003516671536,109.21586059097382,156.87782793000267,-0.48,1.26,5000,5000,5000,5000,4.74,14.73,8.0,15.48
7.9,35.653502487873894,110.6889783120269,157.67782793000268,-0.48,1.26,5000,5000,5000,5000,4.74,14.73,8.0,15.48
8.0,36.12800145907625,112.16209603307999,158.4778279300027,-0.48,1.26,5000,5000,5000,5000,4.74,14.73,8.0,15.48
8.1,36.60250043027861,113.63521375413308,159.2778279300027,-0.48,1.26,5000,5000,5000,5000,4.74,14.73,8.0,15.48
8.2,37.07699940148097,115.10833147518616,160.0778279300027,-0.48,1.26,5000,5000,5000,5000,4.74,14.73,8.0,15.48
8.3,37.55149837268333,116.58144919623925,160.87782793000272,-0.48,1.26,5000,5000,5000,5000,4.74,14.73,8.0,15.48
8.4,38.025997343885685,118.05456691729233,161.67782793000274,-0.48,1.26,5000,5000,5000,5000,4.74,14.73,8.0,15.48
8.5,38.50049631508804,119.52768463834542,162.47782793000275,-0.48,1.26,5000,5000,5000,5000,4.74,14.73,8.0,15.48
8.6,38.9749952862904,121.0008023593985,163.27782793000276,-0.48,1.26,5000,5000,5000,5000,4.74,14.73,8.0,15.48
8.7,39.44949425749276,122.47392008045159,164.07782793000277,-0.48,1.26,5000,5000,5000,5000,4.74,14.73,8.0,15.48
8.8,39.92399322869512,123.94703780150468,164.87782793000278,-0.48,1.26,5000,5000,5000,5000,4.74,14.73,8.0,15.48
8.9,40.398492199897476,125.42015552255776,165.6778279300028,-0.48,1.26,5000,5000,5000,5000,4.74,14.73,8.0,15.48
9.0,40.872991171099834,126.89327324361085,166.4778279300028,-0.48,1.26,5000,5000,5000,5000,4.74,14.73,8.0,15.48
9.1,41.34749014230219,128.36639096466394,167.27782793000281,-0.48,1.26,5000,5000,5000,5000,4.74,14.73,8.0,15.48
9.2,41.82198911350455,129.83950868571702,168.07782793000283,-0.48,1.26,5000,5000,5000,5000,4.74,14.73,8.0,15.48
9.3,42.29648808470691,131.3126264067701,168.87782793000284,-0.48,1.26,5000,5000,5000,5000,4.74,14.73,8.0,15.48
9.4,42.770987055909266,132.7857441278232,169.67782793000285,-0.48,1.26,5000,5000,5000,5000,4.74,14.73,8.0,15.48
9.5,43.245486027111625,134.25886184887628,170.47782793000286,-0.48,1.26,5000,5000,5000,5000,4.74,14.73,8.0,15.48
9.6,43.71998499831398,135.73197956992936,171.27782793000287,-0.48,1.26,5000,5000,5000,5000,4.74,14.73,8.0,15.48
9.7,44.19448396951634,137.20509729098245,172.07782793000288,-0.48,1.26,5000,5000,5000,5000,4.74,14.73,8.0,15.48
9.8,44.6689829407187,138.67821501203554,172.8778279300029,-0.48,1.26,5000,5000,5000,5000,4.74,14.73,8.0,15.48
9.9,45.14348191192106,140.15133273308862,173.6778279300029,-0.48,1.26,5000,5000,5000,5000,4.74,14.73,8.0,15.48
10.0,45.617980883123415,141.6244504541417,174.47782793000292,-0.48,1.26,5000,5000,5000,5000,4.74,14.73,8.0,15.48
10.1,46.092479854325774,143.0975681751948,175.27782793000293,-0.48,1.26,5000,5000,5000,5000,4.74,14.73,8.0,15.48
10.2,46.56697882552813,144.57068589624788,176.07782793000294,-0.48,1.26,5000,5000,5000,5000,4.74,14.73,8.0,15.48
10.3,47.04147779673049,146.04380361730097,176.87782793000295,-0.48,1.26,5000,5000,5000,5000,4.74,14.73,8.0,15.48
10.4,47.51597676793285,147.51692133835405,177.67782793000296,-0.48,1.26,5000,5000,5000,5000,4.74,14.73,8.0,15.48
10.5,47.990475739135206,148.99003905940714,178.47782793000297,-0.49,1.26,5000,5000,5000,5000,4.74,14.73,8.0,15.48
10.6,48.464974710337565,150.46315678046022,179.27782793000299,-0.49,1.26,5000,5000,5000,5000,4.74,14.73,8.0,15.48
10.7,48.93947368153992,151.9362745015133,180.077827930003,-0.49,1.26,5000,5000,5000,5000,4.74,14.73,8.0,15.48
10.8,49.41397265274228,153.4093922225664,180.877827930003,-0.49,1.26,5000,5000,5000,5000,4.74,14.73,8.0,15.48
10.9,49.88847162394464,154.88250994361948,181.67782793000302,-0.49,1.26,5000,5000,5000,5000,4.74,14.73,8.0,15.48
11.0,50.362970595147,156.35562766467257,182.47782793000303,-0.49,1.26,5000,5000,5000,5000,4.74,14.73,8.0,15.48
11.1,50.837469566349355,157.82874538572565,183.27782793000304,-0.49,1.26,5000,5000,5000,5000,4.74,14.73,8.0,15.48
11.2,51.311968537551714,159.30186310677874,184.07782793000305,-0.49,1.26,5000,5000,5000,5000,4.74,14.73,8.0,15.48
11.3,51.78646750875407,160.77498082783183,184.87782793000306,-0.49,1.26,5000,5000,5000,5000,4.74,14.73,8.0,15.48
11.4,52.26096647995643,162.2480985488849,185.67782793000308,-0.49,1.26,5000,5000,5000,5000,4.74,14.73,8.0,15.48
11.5,52.73546545115879,163.721216269938,186.4778279300031,-0.49,1.26,5000,5000,5000,5000,4.74,14.73,8.0,15.48
11.6,53.209964422361146,165.19433399099108,187.2778279300031,-0.49,1.26,5000,5000,5000,5000,4.74,14.73,8.0,15.48
11.7,53.684463393563504,166.66745171204417,188.0778279300031,-0.49,1.26,5000,5000,5000,5000,4.74,14.73,8.0,15.48
11.8,54.15896236476586,168.14056943309726,188.87782793000312,-0.49,1.26,5000,5000,5000,5000,4.74,14.73,8.0,15.48
11.9,54.63346133596822,169.61368715415034,189.67782793000313,-0.49,1.26,5000,5000,5000,5000,4.74,14.73,8.0,15.48
12.0,55.10796030717058,171.08680487520343,190.47782793000314,-0.49,1.26,5000,5000,5000,5000,4.74,14.73,8.0,15.48
12.1,55.58245927837294,172.5599225962565,191.27782793000316,-0.49,1.26,5000,5000,5000,5000,4.74,14.73,8.0,15.48
12.2,56.056958249575295,174.0330403173096,192.07782793000317,-0.49,1.26,5000,5000,5000,5000,4.74,14.73,8.0,15.48
12.3,56.531457220777654,175.50615803836268,192.87782793000318,-0.49,1.26,5000,5000,5000,5000,4.74,14.73,8.0,15.48
12.4,57.00595619198001,176.97927575941577,193.6778279300032,-0.49,1.26,5000,5000,5000,5000,4.74,14.73,8.0,15.48
12.5,57.48045516318237,178.45239348046886,194.4778279300032,-0.49,1.26,5000,5000,5000,5000,4.74,14.73,8.0,15.48
12.6,57.95495413438473,179.92551120152194,195.2778279300032,-0.49,1.26,5000,5000,5000,5000,4.74,14.73,8.0,15.48
12.7,58.429453105587086,181.39862892257503,196.07782793000322,-0.49,1.26,5000,5000,5000,5000,4.74,14.73,8.0,15.48
12.8,58.903952076789444,182.87174664362811,196.87782793000324,-0.49,1.26,5000,5000,5000,5000,4.74,14.73,8.0,15.48
12.9,59.3784510479918,184.3448643646812,197.67782793000325,-0.49,1.26,5000,5000,5000,5000,4.74,14.73,8.0,15.48
13.0,59.85295001919416,185.8179820857343,198.47782793000326,-0.49,1.26,5000,5000,5000,5000,4.74,14.73,8.0,15.48
13.1,60.32744899039652,187.29109980678737,199.27782793000327,-0.49,1.26,5000,5000,5000,5000,4.74,14.73,8.0,15.48
13.2,60.80194796159888,188.76421752784046,200.07782793000328,-0.49,1.26,5000,5000,5000,5000,4.74,14.73,8.0,15.48
13.3,61.276446932801235,190.23733524889354,200.8778279300033,-0.49,1.26,5000,5000,5000,5000,4.74,14.73,8.0,15.48
13.4,61.75094590400359,191.71045296994663,201.6778279300033,-0.49,1.26,5000,5000,5000,5000,4.74,14.73,8.0,15.48
13.5,62.22544487520595,193.18357069099972,202.47782793000331,-0.49,1.26,5000,5000,5000,5000,4.74,14.73,8.0,15.48
13.6,62.69994384640831,194.6566884120528,203.27782793000333,-0.49,1.26,5000,5000,5000,5000,4.74,14.73,8.0,15.48
13.7,63.17444281761067,196.1298061331059,204.07782793000334,-0.49,1.26,5000,5000,5000,5000,4.74,14.73,8.0,15.48
13.8,63.648941788813026,197.60292385415897,204.87782793000335,-0.49,1.26,5000,5000,5000,5000,4.74,14.73,8.0,15.48
13.9,64.12344076001538,199.07604157521206,205.67782793000336,-0.49,1.26,5000,5000,5000,5000,4.74,14.73,8.0,15.48
14.0,64.59793973121775,200.54915929626515,206.47782793000337,-0.49,1.26,5000,5000,5000,5000,4.74,14.73,8.0,15.48
14.1,65.07243870242011,202.02227701731823,207.27782793000338,-0.49,1.26,5000,5000,5000,5000,4.74,14.73,8.0,15.48
14.2,65.54693767362248,203.49539473837132,208.0778279300034,-0.49,1.26,5000,5000,5000,5000,4.74,14.73,8.0,15.48
14.3,66.02143664482485,204.9685124594244,208.8778279300034,-0.49,1.26,5000,5000,5000,5000,4.74,14.73,8.0,15.48
14.4,66.49593561602721,206.4416301804775,209.67782793000342,-0.49,1.26,5000,5000,5000,5000,4.74,14.73,8.0,15.48
14.5,66.97043458722958,207.91474790153057,210.47782793000343,-0.49,1.26,5000,5000,5000,5000,4.74,14.73,8.0,15.48
14.6,67.44493355843194,209.38786562258366,211.27782793000344,-0.49,1.26,5000,5000,5000,5000,4.74,14.73,8.0,15.48
14.7,67.9194325296343,210.86098334363675,212.07782793000345,-0.49,1.26,5000,5000,5000,5000,4.74,14.73,8.0,15.48
14.8,68.39393150083667,212.33410106468983,212.87782793000346,-0.49,1.26,5000,5000,5000,5000,4.74,14.73,8.0,15.48
14.9,68.86843047203904,213.80721878574292,213.67782793000347,-0.49,1.26,5000,5000,5000,5000,4.74,14.73,8.0,15.48
15.0,69.3429294432414,215.280336506796,214.47782793000349,-0.49,1.26,5000,5000,5000,5000,4.74,14.73,8.0,15.48
15.1,69.81742841444377,216.7534542278491,215.2778279300035,-0.49,1.26,5000,5000,5000,5000,4.74,14.73,8.0,15.48
15.2,70.29192738564613,218.22657194890218,216.0778279300035,-0.49,1.26,5000,5000,5000,5000,4.74,14.73,8.0,15.48
15.3,70.7664263568485,219.69968966995526,216.87782793000352,-0.49,1.26,5000,5000,5000,5000,4.74,14.73,8.0,15.48
15.4,71.24092532805086,221.17280739100835,217.67782793000353,-0.49,1.26,5000,5000,5000,5000,4.74,14.73,8.0,15.48
15.5,71.71542429925323,222.64592511206143,218.47782793000354,-0.49,1.26,5000,5000,5000,5000,4.74,14.73,8.0,15.48
15.6,72.1899232704556,224.11904283311452,219.27782793000355,-0.49,1.26,5000,5000,5000,5000,4.74,14.73,8.0,15.48
15.7,72.66442224165796,225.5921605541676,220.07782793000356,-0.49,1.26,5000,5000,5000,5000,4.74,14.73,8.0,15.48
15.8,73.13892121286032,227.0652782752207,220.87782793000358,-0.49,1.26,5000,5000,5000,5000,4.74,14.73,8.0,15.48
15.9,73.61342018406269,228.53839599627378,221.6778279300036,-0.49,1.26,5000,5000,5000,5000,4.74,14.73,8.0,15.48
16.0,74.08791915526506,230.01151371732686,222.4778279300036,-0.49,1.26,5000,5000,5000,5000,4.74,14.73,8.0,15.48
16.1,74.56241812646742,231.48463143837995,223.2778279300036,-0.49,1.26,5000,5000,5000,5000,4.74,14.73,8.0,15.48
16.2,75.03691709766979,232.95774915943304,224.07782793000362,-0.49,1.26,5000,5000,5000,5000,4.74,14.73,8.0,15.48
16.3,75.51141606887215,234.43086688048612,224.87782793000363,-0.49,1.26,5000,5000,5000,5000,4.74,14.73,8.0,15.48
16.4,75.98591504007452,235.9039846015392,225.67782793000364,-0.49,1.26,5000,5000,5000,5000,4.74,14.73,8.0,15.48
16.5,76.46041401127688,237.3771023225923,226.47782793000366,-0.49,1.26,5000,5000,5000,5000,4.74,14.73,8.0,15.48
16.6,76.93491298247925,238.85022004364538,227.27782793000367,-0.49,1.26,5000,5000,5000,5000,4.74,14.73,8.0,15.48
16.7,77.40941195368161,240.32333776469846,228.07782793000368,-0.49,1.26,5000,5000,5000,5000,4.74,14.73,8.0,15.48
16.8,77.88391092488398,241.79645548575155,228.8778279300037,-0.49,1.26,5000,5000,5000,5000,4.74,14.73,8.0,15.48
16.9,78.35840989608634,243.26957320680464,229.6778279300037,-0.49,1.26,5000,5000,5000,5000,4.74,14.73,8.0,15.48
17.0,78.83290886728871,244.74269092785772,230.4778279300037,-0.49,1.26,5000,5000,5000,5000,4.74,14.73,8.0,15.48
17.1,79.30740783849107,246.2158086489108,231.27782793000372,-0.49,1.26,5000,5000,5000,5000,4.74,14.73,8.0,15.48
17.2,79.78190680969344,247.6889263699639,232.07782793000374,-0.49,1.26,5000,5000,5000,5000,4.74,14.73,8.0,15.48
17.3,80.2564057808958,249.16204409101698,232.87782793000375,-0.49,1.26,5000,5000,5000,5000,4.74,14.73,8.0,15.48
17.4,80.73090475209817,250.63516181207007,233.67782793000376,-0.49,1.26,5000,5000,5000,5000,4.74,14.73,8.0,15.48
17.5,81.20540372330053,252.10827953312315,234.47782793000377,-0.49,1.26,5000,5000,5000,5000,4.74,14.73,8.0,15.48
17.6,81.6799026945029,253.58139725417624,235.27782793000378,-0.49,1.26,5000,5000,5000,5000,4.74,14.73,8.0,15.48
17.7,82.15440166570527,255.05451497522932,236.0778279300038,-0.49,1.26,5000,5000,5000,5000,4.74,14.73,8.0,15.48
17.8,82.62890063690763,256.5276326962824,236.8778279300038,-0.49,1.26,5000,5000,5000,5000,4.74,14.73,8.0,15.48
