Time(s),X,Y,Z,Pitch,Yaw,FL,FR,RL,RR,Vx,Vy,Vz,Hor_Speed
0.1,0.20355929174480847,0.564414399837878,100.22620911953484,-0.27,1.22,2760,2760,2760,2760,2.0355929174480845,5.64414399837878,2.2620911953483804,20.0
0.2,0.44783044183857856,1.2417116796433314,100.46947509432326,-0.27,1.22,2820,2820,2820,2820,2.442711500937701,6.772972798054535,2.432659747884139,20.0
0.3,0.7409558219511028,2.054468415409876,100.73108406310156,-0.27,1.22,2880,2880,2880,2880,2.9312538011252416,8.127567357665443,2.616089687783044,20.0
0.4,1.0927062780861316,3.0297764983297286,101.01241914337645,-0.27,1.22,2940,2940,2940,2940,3.517504561350289,9.75308082919853,2.8133508027489014,20.0
0.5,1.5148068254481664,4.200146197833552,101.31496774391908,-0.27,1.22,3000,3000,3000,3000,4.221005473620347,11.703696995038237,3.025486005426384,20.0
0.6,2.021327482282608,5.604589837238141,101.64032942864347,-0.27,1.22,3060,3060,3060,3060,5.065206568344418,14.044436394045885,3.2536168472438742,20.0
0.7,2.6291522704839383,7.289922204523647,101.99022437344514,-0.27,1.22,3120,3120,3120,3120,6.078247882013302,16.853323672855062,3.49894944801679,20.0
0.8,3.307683242966633,9.171303537316573,102.36650246071125,-0.27,1.22,3180,3180,3180,3180,6.785309724826948,18.813813327929264,3.7627808726610494,20.0
0.9,3.9862142154493276,11.0526848701095,102.77115305958425,-0.27,1.22,3240,3240,3240,3240,6.785309724826948,18.813813327929264,4.046505988730109,20.0
1.0,4.664745187932023,12.934066202902427,103.20631554368737,-0.27,1.22,3300,3300,3300,3300,6.785309724826948,18.813813327929264,4.351624841031133,20.0
1.1,5.343276160414717,14.815447535695354,103.67429060191833,-0.27,1.22,3360,3360,3360,3360,6.785309724826948,18.813813327929264,4.679750582309663,20.0
1.2,6.021807132897412,16.69682886848828,104.17755240211153,-0.27,1.22,3420,3420,3420,3420,6.785309724826948,18.813813327929264,5.032618001931964,20.0
1.3,6.700338105380107,18.578210201281205,104.71876167187713,-0.27,1.22,3480,3480,3480,3480,6.785309724826948,18.813813327929264,5.412092697656036,20.0
1.4,7.378869077862801,20.459591534074132,105.30077976577533,-0.27,1.22,3540,3540,3540,3540,6.785309724826948,18.813813327929264,5.820180938981935,20.0
1.5,8.057400050345496,22.34097286686706,105.92668379319821,-0.27,1.22,3600,3600,3600,3600,6.785309724826948,18.813813327929264,6.25904027422879,20.0
1.6,8.735931022828192,24.222354199659986,106.59978288693996,-0.27,1.22,3660,3660,3660,3660,6.785309724826948,18.813813327929264,6.730990937417583,20.0
1.7,9.414461995310887,26.103735532452912,107.32363569846673,-0.27,1.22,3720,3720,3720,3720,6.7853097248269485,18.813813327929267,7.2385281152676475,20.0
1.8,10.092992967793583,27.98511686524584,108.07766609691619,-0.27,1.22,3780,3780,3780,3780,6.785309724826948,18.813813327929264,7.5403039844946,20.0
1.9,10.771523940276278,29.866498198038766,108.83169649536565,-0.27,1.22,3840,3840,3840,3840,6.785309724826948,18.813813327929264,7.5403039844946,20.0
2.0,11.450054912758974,31.747879530831693,109.5857268938151,-0.27,1.22,3900,3900,3900,3900,6.785309724826948,18.813813327929264,7.5403039844946,20.0
2.1,12.12858588524167,33.629260863624616,110.33975729226457,-0.27,1.22,3960,3960,3960,3960,6.785309724826948,18.813813327929264,7.5403039844946,20.0
2.2,12.807116857724363,35.51064219641754,111.09378769071402,-0.27,1.22,4020,4020,4020,4020,6.785309724826947,18.813813327929264,7.5403039844946,20.0
2.3,13.485647830207059,37.39202352921047,111.84781808916348,-0.27,1.22,4080,4080,4080,4080,6.785309724826948,18.813813327929264,7.5403039844946,20.0
2.4,14.164178802689754,39.273404862003396,112.60184848761294,-0.27,1.22,4140,4140,4140,4140,6.785309724826948,18.813813327929264,7.5403039844946,20.0
2.5,14.84270977517245,41.15478619479632,113.3558788860624,-0.27,1.22,4200,4200,4200,4200,6.785309724826948,18.813813327929264,7.5403039844946,20.0
2.6,15.521240747655145,43.03616752758925,114.10990928451186,-0.27,1.22,4260,4260,4260,4260,6.785309724826948,18.813813327929264,7.5403039844946,20.0
2.7,16.19977172013784,44.917548860382176,114.86393968296132,-0.27,1.22,4320,4320,4320,4320,6.7853097248269485,18.813813327929267,7.5403039844946,20.0
2.8,16.878302692620533,46.7989301931751,115.61797008141077,-0.27,1.22,4380,4380,4380,4380,6.785309724826947,18.813813327929264,7.5403039844946,20.0
2.9,17.556833665103227,48.68031152596803,116.37200047986023,-0.26,1.22,4440,4440,4440,4440,6.785309724826948,18.813813327929264,7.5403039844946,20.0
3.0,18.23536463758592,50.561692858760956,117.12603087830969,-0.26,1.22,4500,4500,4500,4500,6.785309724826948,18.813813327929264,7.5403039844946,20.0
3.1,18.913895610068614,52.44307419155388,117.88006127675915,-0.26,1.22,4560,4560,4560,4560,6.785309724826948,18.813813327929264,7.5403039844946,20.0
3.2,19.592426582551308,54.32445552434681,118.63409167520861,-0.26,1.22,4620,4620,4620,4620,6.7853097248269485,18.813813327929264,7.5403039844946,20.0
3.3,20.270957555034002,56.20583685713974,119.38812207365807,-0.26,1.22,4680,4680,4680,4680,6.785309724826948,18.813813327929264,7.5403039844946,20.0
3.4,20.949488527516696,58.08721818993266,120.14215247210753,-0.26,1.22,4740,4740,4740,4740,6.785309724826948,18.813813327929264,7.5403039844946,20.0
3.5,21.62801949999939,59.96859952272559,120.89618287055698,-0.26,1.22,4800,4800,4800,4800,6.7853097248269485,18.813813327929264,7.5403039844946,20.0
3.6,22.306550472482083,61.84998085551852,121.65021326900644,-0.26,1.22,4860,4860,4860,4860,6.785309724826948,18.813813327929264,7.5403039844946,20.0
3.7,22.985081444964777,63.731362188311444,122.4042436674559,-0.26,1.22,4920,4920,4920,4920,6.785309724826948,18.813813327929264,7.5403039844946,20.0
3.8,23.66361241744747,65.61274352110436,123.15827406590536,-0.26,1.22,4980,4980,4980,4980,6.7853097248269485,18.813813327929264,7.5403039844946,20.0
3.9,24.342143389930165,67.49412485389729,123.91230446435482,-0.26,1.22,5000,5000,5000,5000,6.7853097248269485,18.813813327929264,7.5403039844946,20.0
4.0,25.02067436241286,69.37550618669022,124.66633486280428,-0.26,1.22,5000,5000,5000,5000,6.7853097248269485,18.813813327929264,7.5403039844946,20.0
4.1,25.699205334895552,71.25688751948314,125.42036526125374,-0.26,1.22,5000,5000,5000,5000,6.785309724826948,18.813813327929264,7.5403039844946,20.0
4.2,26.377736307378246,73.13826885227607,126.1743956597032,-0.25,1.22,5000,5000,5000,5000,6.7853097248269485,18.813813327929264,7.5403039844946,20.0
4.3,27.05626727986094,75.019650185069,126.92842605815265,-0.25,1.22,5000,5000,5000,5000,6.7853097248269485,18.813813327929264,7.5403039844946,20.0
4.4,27.734798252343634,76.90103151786192,127.68245645660211,-0.25,1.22,5000,5000,5000,5000,6.785309724826948,18.813813327929264,7.5403039844946,20.0
4.5,28.413329224826327,78.78241285065485,128.43648685505158,-0.25,1.22,5000,5000,5000,5000,6.7853097248269485,18.813813327929264,7.5403039844946,20.0
4.6,29.09186019730902,80.66379418344778,129.19051725350104,-0.25,1.22,5000,5000,5000,5000,6.7853097248269485,18.813813327929264,7.5403039844946,20.0
4.7,29.770391169791715,82.5451755162407,129.9445476519505,-0.25,1.22,5000,5000,5000,5000,6.78530972482695,18.813813327929264,7.5403039844946,20.0
4.8,30.44892214227441,84.42655684903363,130.69857805039996,-0.25,1.22,5000,5000,5000,5000,6.78530972482695,18.813813327929264,7.5403039844946,20.0
4.9,31.127453114757103,86.30793818182656,131.45260844884942,-0.25,1.22,5000,5000,5000,5000,6.7853097248269485,18.813813327929264,7.5403039844946,20.0
5.0,31.805984087239796,88.18931951461948,132.20663884729888,-0.25,1.22,5000,5000,5000,5000,6.7853097248269485,18.813813327929264,7.5403039844946,20.0
5.1,32.48451505972249,90.07070084741241,132.96066924574833,-0.25,1.22,5000,5000,5000,5000,6.78530972482695,18.813813327929264,7.5403039844946,20.0
5.2,33.16304603220519,91.95208218020534,133.7146996441978,-0.24,1.22,5000,5000,5000,5000,6.7853097248269485,18.813813327929264,7.5403039844946,20.0
5.3,33.841577004687885,93.83346351299826,134.46873004264725,-0.24,1.22,5000,5000,5000,5000,6.7853097248269485,18.813813327929264,7.5403039844946,20.0
5.4,34.52010797717058,95.71484484579119,135.2227604410967,-0.24,1.22,5000,5000,5000,5000,6.78530972482695,18.813813327929264,7.5403039844946,20.0
5.5,35.19863894965328,97.59622617858412,135.97679083954617,-0.24,1.22,5000,5000,5000,5000,6.7853097248269485,18.813813327929264,7.5403039844946,20.0
5.6,35.87716992213598,99.47760751137704,136.73082123799563,-0.24,1.22,5000,5000,5000,5000,6.785309724826948,18.813813327929264,7.5403039844946,20.0
5.7,36.555700894618674,101.35898884416997,137.4848516364451,-0.24,1.22,5000,5000,5000,5000,6.7853097248269485,18.813813327929264,7.5403039844946,20.0
5.8,37.23423186710137,103.2403701769629,138.23888203489454,-0.24,1.22,5000,5000,5000,5000,6.7853097248269485,18.813813327929264,7.5403039844946,20.0
5.9,37.91276283958407,105.12175150975582,138.992912433344,-0.24,1.22,5000,5000,5000,5000,6.785309724826948,18.813813327929264,7.5403039844946,20.0
6.0,38.591293812066766,107.00313284254875,139.74694283179346,-0.24,1.22,5000,5000,5000,5000,6.785309724826947,18.813813327929264,7.5403039844946,20.0
6.1,39.26982478454946,108.88451417534168,140.50097323024292,-0.23,1.22,5000,5000,5000,5000,6.785309724826948,18.813813327929264,7.5403039844946,20.0
6.2,39.94835575703216,110.7658955081346,141.25500362869238,-0.23,1.22,5000,5000,5000,5000,6.785309724826948,18.813813327929264,7.5403039844946,20.0
6.3,40.62688672951486,112.64727684092753,142.00903402714184,-0.23,1.22,5000,5000,5000,5000,6.785309724826947,18.813813327929264,7.5403039844946,20.0
6.4,41.305417701997555,114.52865817372046,142.7630644255913,-0.23,1.22,5000,5000,5000,5000,6.785309724826947,18.813813327929264,7.5403039844946,20.0
6.5,41.98394867448025,116.41003950651339,143.51709482404075,-0.23,1.22,5000,5000,5000,5000,6.785309724826947,18.813813327929264,7.5403039844946,20.0
6.6,42.66247964696295,118.29142083930631,144.2711252224902,-0.23,1.22,5000,5000,5000,5000,6.785309724826947,18.813813327929264,7.5403039844946,20.0
6.7,43.34101061944565,120.17280217209924,145.02515562093967,-0.23,1.22,5000,5000,5000,5000,6.785309724826946,18.813813327929264,7.5403039844946,20.0
6.8,44.019541591928345,122.05418350489217,145.77918601938913,-0.23,1.22,5000,5000,5000,5000,6.785309724826946,18.813813327929264,7.5403039844946,20.0
6.9,44.69807256441104,123.93556483768509,146.5332164178386,-0.22,1.22,5000,5000,5000,5000,6.785309724826947,18.813813327929267,7.5403039844946,20.0
7.0,45.37660353689374,125.81694617047802,147.28724681628805,-0.22,1.22,5000,5000,5000,5000,6.785309724826946,18.813813327929264,7.5403039844946,20.0
7.1,46.05513450937644,127.69832750327095,148.0412772147375,-0.22,1.22,5000,5000,5000,5000,6.785309724826945,18.813813327929264,7.5403039844946,20.0
7.2,46.733665481859134,129.57970883606387,148.79530761318696,-0.22,1.22,5000,5000,5000,5000,6.785309724826946,18.813813327929267,7.5403039844946,20.0
7.3,47.41219645434183,131.4610901688568,149.54933801163642,-0.22,1.22,5000,5000,5000,5000,6.785309724826945,18.813813327929264,7.5403039844946,20.0
7.4,48.09072742682453,133.34247150164973,150.30336841008588,-0.22,1.22,5000,5000,5000,5000,6.785309724826946,18.813813327929267,7.5403039844946,20.0
7.5,48.769258399307226,135.22385283444265,151.05739880853534,-0.21,1.22,5000,5000,5000,5000,6.785309724826945,18.813813327929267,7.5403039844946,20.0
7.6,49.44778937178992,137.10523416723558,151.8114292069848,-0.21,1.22,5000,5000,5000,5000,6.785309724826945,18.813813327929267,7.5403039844946,20.0
7.7,50.12632034427262,138.9866155000285,152.56545960543426,-0.21,1.22,5000,5000,5000,5000,6.785309724826945,18.813813327929267,7.5403039844946,20.0
7.8,50.80485131675532,140.86799683282143,153.31949000388371,-0.21,1.22,5000,5000,5000,5000,6.785309724826943,18.813813327929267,7.5403039844946,20.0
7.9,51.483382289238016,142.74937816561436,154.07352040233317,-0.21,1.22,5000,5000,5000,5000,6.785309724826943,18.813813327929267,7.5403039844946,20.0
8.0,52.16191326172071,144.6307594984073,154.82755080078263,-0.21,1.22,5000,5000,5000,5000,6.785309724826943,18.813813327929267,7.5403039844946,20.0
8.1,52.84044423420341,146.5121408312002,155.5815811992321,-0.2,1.22,5000,5000,5000,5000,6.785309724826942,18.813813327929267,7.5403039844946,20.0
8.2,53.51897520668611,148.39352216399314,156.33561159768155,-0.2,1.22,5000,5000,5000,5000,6.785309724826942,18.813813327929267,7.5403039844946,20.0
8.3,54.197506179168805,150.27490349678607,157.089641996131,-0.2,1.22,5000,5000,5000,5000,6.785309724826942,18.813813327929267,7.5403039844946,20.0
8.4,54.8760371516515,152.156284829579,157.84367239458047,-0.2,1.22,5000,5000,5000,5000,6.785309724826941,18.813813327929267,7.5403039844946,20.0
8.5,55.5545681241342,154.03766616237192,158.59770279302992,-0.2,1.22,5000,5000,5000,5000,6.785309724826941,18.813813327929267,7.5403039844946,20.0
8.6,56.2330990966169,155.91904749516485,159.35173319147938,-0.19,1.22,5000,5000,5000,5000,6.785309724826941,18.813813327929267,7.5403039844946,20.0
8.7,56.911630069099594,157.80042882795777,160.10576358992884,-0.19,1.22,5000,5000,5000,5000,6.78530972482694,18.813813327929267,7.5403039844946,20.0
8.8,57.59016104158229,159.6818101607507,160.8597939883783,-0.19,1.22,5000,5000,5000,5000,6.78530972482694,18.813813327929267,7.5403039844946,20.0
8.9,58.26869201406499,161.56319149354363,161.61382438682776,-0.19,1.22,5000,5000,5000,5000,6.78530972482694,18.813813327929267,7.5403039844946,20.0
9.0,58.947222986547686,163.44457282633655,162.36785478527722,-0.18,1.22,5000,5000,5000,5000,6.785309724826939,18.813813327929267,7.5403039844946,20.0
9.1,59.625753959030384,165.32595415912948,163.12188518372668,-0.18,1.22,5000,5000,5000,5000,6.785309724826939,18.813813327929267,7.5403039844946,20.0
9.2,60.30428493151308,167.2073354919224,163.87591558217613,-0.18,1.22,5000,5000,5000,5000,6.785309724826938,18.813813327929267,7.5403039844946,20.0
9.3,60.98281590399577,169.08871682471533,164.6299459806256,-0.18,1.22,5000,5000,5000,5000,6.785309724826938,18.813813327929267,7.5403039844946,20.0
9.4,61.66134687647846,170.97009815750826,165.38397637907505,-0.17,1.22,5000,5000,5000,5000,6.785309724826938,18.813813327929267,7.5403039844946,20.0
9.5,62.33987784896116,172.8514794903012,166.1380067775245,-0.17,1.22,5000,5000,5000,5000,6.785309724826939,18.813813327929267,7.5403039844946,20.0
9.6,63.018408821443856,174.73286082309411,166.89203717597397,-0.17,1.22,5000,5000,5000,5000,6.785309724826938,18.813813327929267,7.5403039844946,20.0
9.7,63.696939793926546,176.61424215588704,167.64606757442343,-0.17,1.22,5000,5000,5000,5000,6.785309724826938,18.813813327929267,7.5403039844946,20.0
9.8,64.37547076640924,178.49562348867997,168.40009797287289,-0.16,1.22,5000,5000,5000,5000,6.785309724826938,18.813813327929267,7.5403039844946,20.0
9.9,65.05400173889193,180.3770048214729,169.15412837132234,-0.16,1.22,5000,5000,5000,5000,6.785309724826939,18.813813327929267,7.5403039844946,20.0
10.0,65.73253271137462,182.25838615426582,169.9081587697718,-0.16,1.22,5000,5000,5000,5000,6.785309724826939,18.813813327929267,7.5403039844946,20.0
10.1,66.41106368385731,184.13976748705875,170.66218916822126,-0.15,1.22,5000,5000,5000,5000,6.78530972482694,18.813813327929267,7.5403039844946,20.0
10.2,67.08959465634,186.02114881985167,171.41621956667072,-0.15,1.22,5000,5000,5000,5000,6.78530972482694,18.813813327929267,7.5403039844946,20.0
10.3,67.76812562882269,187.9025301526446,172.17024996512018,-0.15,1.22,5000,5000,5000,5000,6.785309724826941,18.813813327929267,7.5403039844946,20.0
10.4,68.44665660130538,189.78391148543753,172.92428036356964,-0.14,1.22,5000,5000,5000,5000,6.785309724826942,18.813813327929267,7.5403039844946,20.0
10.5,69.12518757378807,191.66529281823045,173.6783107620191,-0.14,1.22,5000,5000,5000,5000,6.785309724826942,18.813813327929267,7.5403039844946,20.0
10.6,69.80371854627076,193.54667415102338,174.43234116046855,-0.13,1.22,5000,5000,5000,5000,6.785309724826943,18.813813327929267,7.5403039844946,20.0
10.7,70.48224951875345,195.4280554838163,175.186371558918,-0.13,1.22,5000,5000,5000,5000,6.785309724826943,18.813813327929267,7.5403039844946,20.0
10.8,71.16078049123614,197.30943681660924,175.94040195736747,-0.13,1.22,5000,5000,5000,5000,6.785309724826945,18.813813327929267,7.5403039844946,20.0
10.9,71.83931146371883,199.19081814940216,176.69443235581693,-0.12,1.22,5000,5000,5000,5000,6.785309724826946,18.813813327929267,7.5403039844946,20.0
11.0,72.51784243620152,201.0721994821951,177.4484627542664,-0.12,1.22,5000,5000,5000,5000,6.785309724826946,18.813813327929264,7.5403039844946,20.0
11.1,73.19637340868421,202.95358081498802,178.20249315271585,-0.11,1.22,5000,5000,5000,5000,6.785309724826946,18.813813327929264,7.5403039844946,20.0
11.2,73.8749043811669,204.83496214778094,178.94634448499028,-0.11,1.22,5000,5000,5000,5000,6.785309724826947,18.813813327929264,7.43851332274419,20.0
11.3,74.55343535364959,206.71634348057387,179.6528033828339,-0.1,1.22,5000,5000,5000,5000,6.785309724826948,18.813813327929264,7.064588978436156,20.0
11.4,75.23196632613228,208.5977248133668,180.32374951506222,-0.1,1.22,5000,5000,5000,5000,6.785309724826948,18.813813327929264,6.709461322283362,20.0
11.5,75.91049729861497,210.47910614615972,180.96096806199574,-0.09,1.22,4940,4940,4940,4940,6.7853097248269485,18.813813327929264,6.372185469335197,20.0
11.6,76.58902827109766,212.36048747895265,181.56615446527303,-0.09,1.22,4880,4880,4880,4880,6.78530972482695,18.813813327929264,6.05186403277275,20.0
11.7,77.26755924358035,214.24186881174558,182.14091893889702,-0.09,1.22,4820,4820,4820,4820,6.785309724826951,18.813813327929264,5.747644736239838,20.0
11.8,77.94609021606304,216.1232501445385,182.6867907535169,-0.08,1.22,4760,4760,4760,4760,6.785309724826952,18.813813327929264,5.458718146198978,20.0
11.9,78.62462118854573,218.00463147733143,183.2052223053448,-0.08,1.22,4700,4700,4700,4700,6.785309724826954,18.813813327929264,5.18431551827887,20.0
12.0,79.30315216102842,219.88601281012436,183.6975929805331,-0.07,1.22,4640,4640,4640,4640,6.785309724826954,18.81381332792926,4.923706751883167,20.0
12.1,79.98168313351111,221.76739414291728,184.16521282529496,-0.07,1.22,4580,4580,4580,4580,6.785309724826955,18.81381332792926,4.676198447618453,20.0
12.2,80.6602141059938,223.6487754757102,184.60932603153222,-0.07,1.22,4520,4520,4520,4520,6.785309724826956,18.81381332792926,4.441132062372682,20.0
12.3,81.33874507847649,225.53015680850314,185.03111424724577,-0.06,1.22,4460,4460,4460,4460,6.7853097248269565,18.81381332792926,4.217882157135515,20.0
12.4,82.01727605095918,227.41153814129606,185.4316997205356,-0.06,1.22,4400,4400,4400,4400,6.785309724826957,18.81381332792926,4.0058547328983325,20.0
12.5,82.69580702344187,229.292919474089,185.81214828555625,-0.06,1.22,4340,4340,4340,4340,6.785309724826959,18.81381332792926,3.8044856502064723,20.0
12.6,83.37433799592456,231.17430080688192,186.17347219837208,-0.05,1.22,4280,4280,4280,4280,6.785309724826961,18.81381332792926,3.613239128158438,20.0
12.7,84.05286896840725,233.05568213967484,186.51663283025795,-0.05,1.22,4220,4220,4220,4220,6.785309724826963,18.81381332792926,3.431606318858544,20.0
12.8,84.73139994088994,234.93706347246777,186.84254322561094,-0.05,1.22,4160,4160,4160,4160,6.7853097248269645,18.81381332792926,3.259103953529832,20.0
12.9,85.40993091337263,236.8184448052607,187.15207053127946,-0.04,1.22,4100,4100,4100,4100,6.785309724826965,18.81381332792926,3.0952730566852735,20.0
13.0,86.08846188585532,238.69982613805362,187.44603830377304,-0.04,1.22,4040,4040,4040,4040,6.785309724826965,18.813813327929257,2.93967772493579,20.0
13.1,86.76699285833801,240.58120747084655,187.72522870049164,-0.04,1.22,3980,3980,3980,3980,6.785309724826968,18.813813327929257,2.7919039671860375,20.0
13.2,87.4455238308207,242.46258880363948,187.99038456080484,-0.03,1.22,3920,3920,3920,3920,6.78530972482697,18.813813327929257,2.6515586031320426,20.0
13.3,88.12405480330341,244.3439701364324,188.24221138251784,-0.03,1.22,3860,3860,3860,3860,6.7853097248269725,18.813813327929257,2.518268217129928,20.0
