Time(s),X,Y,Z,Pitch,Yaw,FL,FR,RL,RR,Vx,Vy,Vz,Hor_Speed
0.1,0.03712405437250381,0.19652431042226653,100.0,-0.0,1.38,2160,2160,2160,2160,0.37,1.97,0.0,20
0.2,0.08167291961950839,0.43235348292898634,100.0,-0.0,1.38,2220,2220,2220,2220,0.45,2.36,0.0,20
0.3,0.13513155791591389,0.7153484899370501,100.0,-0.0,1.38,2280,2280,2280,2280,0.53,2.83,0.0,20
0.4,0.19928192387160049,1.0549424983467268,100.0,-0.0,1.38,2340,2340,2340,2340,0.64,3.4,0.0,20
0.5,0.2762623630184244,1.4624553084383387,100.0,-0.0,1.38,2400,2400,2400,2400,0.77,4.08,0.0,20
0.6,0.3686388899946131,1.9514706805482729,100.0,-0.0,1.38,2460,2460,2460,2460,0.92,4.89,0.0,20
0.7,0.4794907223660395,2.538289127080194,100.0,-0.0,1.38,2520,2520,2520,2520,1.11,5.87,0.0,20
0.8,0.6125129212117513,3.2424712629184995,100.0,-0.0,1.38,2580,2580,2580,2580,1.33,7.04,0.0,20
0.9,0.7721395598266053,4.087489825924466,100.0,-0.0,1.38,2640,2640,2640,2640,1.6,8.45,0.0,20
1.0,0.9636915261644301,5.101512101531626,100.0,-0.0,1.38,2700,2700,2700,2700,1.92,10.14,0.0,20
1.1,1.19355388576982,6.318338832260218,100.0,-0.0,1.38,2760,2760,2760,2760,2.3,12.17,0.0,20
1.2,1.4693887172962878,7.778530909134528,100.0,-0.0,1.38,2820,2820,2820,2820,2.76,14.6,0.0,20
1.3,1.8003905151280493,9.5307614013837,100.0,-0.0,1.38,2880,2880,2880,2880,3.31,17.52,0.0,20
1.4,2.1716310588530874,11.496004505606365,100.0,-0.0,1.38,2940,2940,2940,2940,3.71,19.65,0.0,20
1.5,2.5428716025781255,13.46124760982903,100.0,-0.0,1.38,3000,3000,3000,3000,3.71,19.65,0.0,20
1.6,2.9141121463031636,15.426490714051695,100.0,-0.0,1.38,3060,3060,3060,3060,3.71,19.65,0.0,20
1.7,3.2853526900282017,17.39173381827436,100.0,-0.0,1.38,3120,3120,3120,3120,3.71,19.65,0.0,20
1.8,3.65659323375324,19.356976922497026,100.0,-0.0,1.38,3060,3060,3060,3060,3.71,19.65,0.0,20
1.9,4.027833777478278,21.32222002671969,100.0,-0.0,1.38,3120,3120,3120,3120,3.71,19.65,0.0,20
2.0,4.399074321203317,23.287463130942356,100.0,-0.0,1.38,3060,3060,3060,3060,3.71,19.65,0.0,20
2.1,4.7703148649283555,25.25270623516502,100.0,-0.0,1.38,3120,3120,3120,3120,3.71,19.65,0.0,20
2.2,5.141555408653394,27.217949339387687,100.0,-0.0,1.38,3060,3060,3060,3060,3.71,19.65,0.0,20
2.3,5.512795952378433,29.183192443610352,100.0,-0.0,1.38,3120,3120,3120,3120,3.71,19.65,0.0,20
2.4,5.88403649610347,31.148435547833017,100.0,-0.0,1.38,3060,3060,3060,3060,3.71,19.65,0.0,20
2.5,6.255277039828508,33.11367865205568,100.0,-0.0,1.38,3120,3120,3120,3120,3.71,19.65,0.0,20
2.6,6.626517583553547,35.07892175627835,100.0,-0.0,1.38,3060,3060,3060,3060,3.71,19.65,0.0,20
2.7,6.997758127278584,37.04416486050101,100.0,-0.0,1.38,3120,3120,3120,3120,3.71,19.65,0.0,20
2.8,7.368998671003622,39.00940796472368,100.0,-0.0,1.38,3060,3060,3060,3060,3.71,19.65,0.0,20
2.9,7.7402392147286605,40.97465106894634,100.0,-0.0,1.38,3120,3120,3120,3120,3.71,19.65,0.0,20
3.0,8.111479758453699,42.93989417316901,100.0,-0.0,1.38,3060,3060,3060,3060,3.71,19.65,0.0,20
3.1,8.482720302178738,44.905137277391674,100.0,-0.0,1.38,3120,3120,3120,3120,3.71,19.65,0.0,20
3.2,8.853960845903776,46.87038038161434,100.0,-0.0,1.38,3060,3060,3060,3060,3.71,19.65,0.0,20
3.3,9.225201389628815,48.835623485837004,100.0,-0.0,1.38,3120,3120,3120,3120,3.71,19.65,0.0,20
3.4,9.596441933353853,50.80086659005967,100.0,-0.0,1.38,3060,3060,3060,3060,3.71,19.65,0.0,20
3.5,9.967682477078892,52.766109694282335,100.0,-0.0,1.38,3120,3120,3120,3120,3.71,19.65,0.0,20
3.6,10.33892302080393,54.731352798505,100.0,-0.0,1.38,3060,3060,3060,3060,3.71,19.65,0.0,20
3.7,10.710163564528969,56.696595902727665,100.0,-0.0,1.38,3120,3120,3120,3120,3.71,19.65,0.0,20
3.8,11.081404108254008,58.66183900695033,100.0,-0.0,1.38,3060,3060,3060,3060,3.71,19.65,0.0,20
3.9,11.452644651979046,60.627082111172996,100.0,-0.0,1.38,3120,3120,3120,3120,3.71,19.65,0.0,20
4.0,11.823885195704085,62.59232521539566,100.0,-0.0,1.38,3060,3060,3060,3060,3.71,19.65,0.0,20
4.1,12.195125739429123,64.55756831961833,100.0,-0.0,1.38,3120,3120,3120,3120,3.71,19.65,0.0,20
4.2,12.566366283154162,66.52281142384099,100.0,-0.0,1.38,3060,3060,3060,3060,3.71,19.65,0.0,20
4.3,12.9376068268792,68.48805452806366,100.0,-0.0,1.38,3120,3120,3120,3120,3.71,19.65,0.0,20
4.4,13.308847370604239,70.45329763228632,100.0,-0.0,1.38,3060,3060,3060,3060,3.71,19.65,0.0,20
4.5,13.680087914329278,72.41854073650899,100.0,-0.0,1.38,3120,3120,3120,3120,3.71,19.65,0.0,20
4.6,14.051328458054316,74.38378384073165,100.0,-0.0,1.38,3060,3060,3060,3060,3.71,19.65,0.0,20
4.7,14.422569001779355,76.34902694495432,100.0,-0.0,1.38,3120,3120,3120,3120,3.71,19.65,0.0,20
4.8,14.793809545504393,78.31427004917698,100.0,-0.0,1.38,3060,3060,3060,3060,3.71,19.65,0.0,20
4.9,15.165050089229432,80.27951315339965,100.0,-0.0,1.38,3120,3120,3120,3120,3.71,19.65,0.0,20
5.0,15.53629063295447,82.24475625762231,100.0,-0.0,1.38,3060,3060,3060,3060,3.71,19.65,0.0,20
5.1,15.907531176679509,84.20999936184498,100.0,-0.0,1.38,3120,3120,3120,3120,3.71,19.65,0.0,20
5.2,16.278771720404546,86.17524246606764,100.0,-0.0,1.38,3060,3060,3060,3060,3.71,19.65,0.0,20
5.3,16.650012264129582,88.14048557029031,100.0,-0.0,1.38,3120,3120,3120,3120,3.71,19.65,0.0,20
5.4,17.02125280785462,90.10572867451297,100.0,-0.0,1.38,3060,3060,3060,3060,3.71,19.65,0.0,20
5.5,17.392493351579656,92.07097177873564,100.0,-0.0,1.38,3120,3120,3120,3120,3.71,19.65,0.0,20
5.6,17.763733895304693,94.0362148829583,100.0,-0.0,1.38,3060,3060,3060,3060,3.71,19.65,0.0,20
5.7,18.13497443902973,96.00145798718097,100.0,-0.0,1.38,3120,3120,3120,3120,3.71,19.65,0.0,20
5.8,18.506214982754766,97.96670109140364,100.0,-0.0,1.38,3060,3060,3060,3060,3.71,19.65,0.0,20
5.9,18.877455526479803,99.9319441956263,100.0,-0.0,1.38,3120,3120,3120,3120,3.71,19.65,0.0,20
6.0,19.24869607020484,101.89718729984897,100.0,-0.0,1.38,3060,3060,3060,3060,3.71,19.65,0.0,20
6.1,19.619936613929877,103.86243040407163,100.0,-0.0,1.38,3120,3120,3120,3120,3.71,19.65,0.0,20
6.2,19.991177157654914,105.8276735082943,100.0,-0.0,1.38,3060,3060,3060,3060,3.71,19.65,0.0,20
6.3,20.36241770137995,107.79291661251696,100.0,-0.0,1.38,3120,3120,3120,3120,3.71,19.65,0.0,20
6.4,20.733658245104987,109.75815971673963,100.0,-0.0,1.38,3060,3060,3060,3060,3.71,19.65,0.0,20
6.5,21.104898788830024,111.72340282096229,100.0,-0.0,1.38,3120,3120,3120,3120,3.71,19.65,0.0,20
6.6,21.47613933255506,113.68864592518496,100.0,-0.0,1.38,3060,3060,3060,3060,3.71,19.65,0.0,20
6.7,21.847379876280097,115.65388902940762,100.0,-0.0,1.38,3120,3120,3120,3120,3.71,19.65,0.0,20
6.8,22.218620420005134,117.61913213363029,100.0,-0.0,1.38,3060,3060,3060,3060,3.71,19.65,0.0,20
6.9,22.58986096373017,119.58437523785295,100.0,-0.0,1.38,3120,3120,3120,3120,3.71,19.65,0.0,20
7.0,22.961101507455208,121.54961834207562,100.0,-0.0,1.38,3060,3060,3060,3060,3.71,19.65,0.0,20
7.1,23.332342051180245,123.51486144629828,100.0,-0.0,1.38,3120,3120,3120,3120,3.71,19.65,0.0,20
7.2,23.70358259490528,125.48010455052095,100.0,-0.0,1.38,3060,3060,3060,3060,3.71,19.65,0.0,20
7.3,24.074823138630318,127.44534765474361,100.0,-0.0,1.38,3120,3120,3120,3120,3.71,19.65,0.0,20
7.4,24.446063682355355,129.4105907589663,100.0,-0.0,1.38,3060,3060,3060,3060,3.71,19.65,0.0,20
7.5,24.81730422608039,131.37583386318897,100.0,-0.0,1.38,3120,3120,3120,3120,3.71,19.65,0.0,20
7.6,25.18854476980543,133.34107696741165,100.0,-0.0,1.38,3060,3060,3060,3060,3.71,19.65,0.0,20
7.7,25.559785313530465,135.30632007163433,100.0,-0.0,1.38,3120,3120,3120,3120,3.71,19.65,0.0,20
7.8,25.931025857255502,137.271563175857,100.0,-0.0,1.38,3060,3060,3060,3060,3.71,19.65,0.0,20
7.9,26.30226640098054,139.2368062800797,100.0,-0.0,1.38,3120,3120,3120,3120,3.71,19.65,0.0,20
8.0,26.673506944705576,141.20204938430237,100.0,-0.0,1.38,3060,3060,3060,3060,3.71,19.65,0.0,20
8.1,27.044747488430612,143.16729248852505,100.0,-0.0,1.38,3120,3120,3120,3120,3.71,19.65,0.0,20
8.2,27.41598803215565,145.13253559274773,100.0,-0.0,1.38,3060,3060,3060,3060,3.71,19.65,0.0,20
8.3,27.787228575880686,147.0977786969704,100.0,-0.0,1.38,3120,3120,3120,3120,3.71,19.65,0.0,20
8.4,28.158469119605723,149.0630218011931,100.0,-0.0,1.38,3060,3060,3060,3060,3.71,19.65,0.0,20
8.5,28.52970966333076,151.02826490541577,100.0,-0.0,1.38,3120,3120,3120,3120,3.71,19.65,0.0,20
8.6,28.900950207055796,152.99350800963845,100.0,-0.0,1.38,3060,3060,3060,3060,3.71,19.65,0.0,20
8.7,29.272190750780833,154.95875111386113,100.0,-0.0,1.38,3120,3120,3120,3120,3.71,19.65,0.0,20
8.8,29.64343129450587,156.9239942180838,100.0,-0.0,1.38,3060,3060,3060,3060,3.71,19.65,0.0,20
8.9,30.014671838230907,158.88923732230649,100.0,-0.0,1.38,3120,3120,3120,3120,3.71,19.65,0.0,20
9.0,30.385912381955944,160.85448042652916,100.0,-0.0,1.38,3060,3060,3060,3060,3.71,19.65,0.0,20
9.1,30.75715292568098,162.81972353075184,100.0,-0.0,1.38,3120,3120,3120,3120,3.71,19.65,0.0,20
9.2,31.128393469406017,164.78496663497452,100.0,-0.0,1.38,3060,3060,3060,3060,3.71,19.65,0.0,20
9.3,31.499634013131054,166.7502097391972,100.0,-0.0,1.38,3120,3120,3120,3120,3.71,19.65,0.0,20
9.4,31.870874556856094,168.71545284341988,100.0,-0.0,1.38,3060,3060,3060,3060,3.71,19.65,0.0,20
9.5,32.24211510058113,170.68069594764256,100.0,-0.0,1.38,3120,3120,3120,3120,3.71,19.65,0.0,20
9.6,32.61335564430617,172.64593905186524,100.0,-0.0,1.38,3060,3060,3060,3060,3.71,19.65,0.0,20
9.7,32.984596188031205,174.61118215608792,100.0,-0.0,1.38,3120,3120,3120,3120,3.71,19.65,0.0,20
9.8,33.35583673175624,176.5764252603106,100.0,-0.0,1.38,3060,3060,3060,3060,3.71,19.65,0.0,20
9.9,33.72707727548128,178.54166836453328,100.0,-0.0,1.38,3120,3120,3120,3120,3.71,19.65,0.0,20
10.0,34.098317819206315,180.50691146875596,100.0,-0.0,1.38,3060,3060,3060,3060,3.71,19.65,0.0,20
10.1,34.46955836293135,182.47215457297864,100.0,-0.0,1.38,3120,3120,3120,3120,3.71,19.65,0.0,20
10.2,34.84079890665639,184.43739767720132,100.0,-0.0,1.38,3060,3060,3060,3060,3.71,19.65,0.0,20
10.3,35.212039450381425,186.402640781424,100.0,-0.0,1.38,3120,3120,3120,3120,3.71,19.65,0.0,20
10.4,35.58327999410646,188.36788388564668,100.0,-0.0,1.38,3060,3060,3060,3060,3.71,19.65,0.0,20
10.5,35.9545205378315,190.33312698986936,100.0,-0.0,1.38,3120,3120,3120,3120,3.71,19.65,0.0,20
10.6,36.325761081556536,192.29837009409204,100.0,-0.0,1.38,3060,3060,3060,3060,3.71,19.65,0.0,20
10.7,36.69700162528157,194.2636131983147,100.0,-0.0,1.38,3120,3120,3120,3120,3.71,19.65,0.0,20
10.8,37.06824216900661,196.22885630253734,100.0,-0.0,1.38,3060,3060,3060,3060,3.71,19.65,0.0,20
10.9,37.439482712731646,198.19409940676002,100.0,-0.0,1.38,3120,3120,3120,3120,3.71,19.65,0.0,20
11.0,37.81072325645668,200.1593425109827,100.0,-0.0,1.38,3060,3060,3060,3060,3.71,19.65,0.0,20
11.1,38.18196380018172,202.12458561520535,100.0,-0.0,1.38,3120,3120,3120,3120,3.71,19.65,0.0,20
11.2,38.553204343906756,204.089828719428,100.0,-0.0,1.38,3060,3060,3060,3060,3.71,19.65,0.0,20
11.3,38.92444488763179,206.05507182365068,100.0,-0.0,1.38,3120,3120,3120,3120,3.71,19.65,0.0,20
11.4,39.29568543135683,208.02031492787336,100.0,-0.0,1.38,3060,3060,3060,3060,3.71,19.65,0.0,20
11.5,39.66692597508187,209.98555803209604,100.0,-0.0,1.38,3120,3120,3120,3120,3.71,19.65,0.0,20
11.6,40.038166518806904,211.95080113631872,100.0,-0.0,1.38,3060,3060,3060,3060,3.71,19.65,0.0,20
11.7,40.40940706253194,213.9160442405414,100.0,-0.0,1.38,3120,3120,3120,3120,3.71,19.65,0.0,20
11.8,40.78064760625698,215.88128734476408,100.0,-0.0,1.38,3060,3060,3060,3060,3.71,19.65,0.0,20
11.9,41.151888149982014,217.84653044898673,100.0,-0.0,1.38,3120,3120,3120,3120,3.71,19.65,0.0,20
12.0,41.52312869370705,219.81177355320938,100.0,-0.0,1.38,3060,3060,3060,3060,3.71,19.65,0.0,20
12.1,41.89436923743209,221.77701665743206,100.0,-0.0,1.38,3120,3120,3120,3120,3.71,19.65,0.0,20
12.2,42.265609781157124,223.74225976165474,100.0,-0.0,1.38,3060,3060,3060,3060,3.71,19.65,0.0,20
12.3,42.63685032488216,225.70750286587742,100.0,-0.0,1.38,3120,3120,3120,3120,3.71,19.65,0.0,20
12.4,43.0080908686072,227.6727459701001,100.0,-0.0,1.38,3060,3060,3060,3060,3.71,19.65,0.0,20
12.5,43.379331412332235,229.63798907432277,100.0,-0.0,1.38,3120,3120,3120,3120,3.71,19.65,0.0,20
12.6,43.75057195605727,231.60323217854545,100.0,-0.0,1.38,3060,3060,3060,3060,3.71,19.65,0.0,20
12.7,44.12181249978231,233.5684752827681,100.0,-0.0,1.38,3120,3120,3120,3120,3.71,19.65,0.0,20
12.8,44.493053043507345,235.53371838699076,100.0,-0.0,1.38,3060,3060,3060,3060,3.71,19.65,0.0,20
12.9,44.86429358723238,237.49896149121344,100.0,-0.0,1.38,3120,3120,3120,3120,3.71,19.65,0.0,20
13.0,45.23553413095742,239.46420459543612,100.0,-0.0,1.38,3060,3060,3060,3060,3.71,19.65,0.0,20
13.1,45.606774674682455,241.4294476996588,100.0,-0.0,1.38,3120,3120,3120,3120,3.71,19.65,0.0,20
13.2,45.97801521840749,243.39469080388147,100.0,-0.0,1.38,3060,3060,3060,3060,3.71,19.65,0.0,20
13.3,46.34925576213253,245.35993390810415,100.0,-0.0,1.38,3120,3120,3120,3120,3.71,19.65,0.0,20
13.4,46.720496305857566,247.32517701232683,100.0,-0.0,1.38,3060,3060,3060,3060,3.71,19.65,0.0,20
13.5,47.0917368495826,249.29042011654948,100.0,-0.0,1.38,3120,3120,3120,3120,3.71,19.65,0.0,20
13.6,47.46297739330764,251.25566322077213,100.0,-0.0,1.38,3060,3060,3060,3060,3.71,19.65,0.0,20
13.7,47.834217937032676,253.22090632499481,100.0,-0.0,1.38,3120,3120,3120,3120,3.71,19.65,0.0,20
13.8,48.20545848075771,255.1861494292175,100.0,-0.0,1.38,3060,3060,3060,3060,3.71,19.65,0.0,20
13.9,48.57669902448275,257.1513925334402,100.0,-0.0,1.38,3120,3120,3120,3120,3.71,19.65,0.0,20
14.0,48.94793956820779,259.11663563766285,100.0,-0.0,1.38,3060,3060,3060,3060,3.71,19.65,0.0,20
14.1,49.31918011193282,261.08187874188553,100.0,-0.0,1.38,3120,3120,3120,3120,3.71,19.65,0.0,20
14.2,49.69042065565786,263.0471218461082,100.0,-0.0,1.38,3060,3060,3060,3060,3.71,19.65,0.0,20
14.3,50.0616611993829,265.0123649503309,100.0,-0.0,1.38,3120,3120,3120,3120,3.71,19.65,0.0,20
14.4,50.432901743107934,266.97760805455357,100.0,-0.0,1.38,3060,3060,3060,3060,3.71,19.65,0.0,20
14.5,50.80414228683297,268.94285115877625,100.0,-0.0,1.38,3120,3120,3120,3120,3.71,19.65,0.0,20
14.6,51.17538283055801,270.90809426299893,100.0,-0.0,1.38,3060,3060,3060,3060,3.71,19.65,0.0,20
14.7,51.546623374283044,272.8733373672216,100.0,-0.0,1.38,3120,3120,3120,3120,3.71,19.65,0.0,20
14.8,51.91786391800808,274.8385804714443,100.0,-0.0,1.38,3060,3060,3060,3060,3.71,19.65,0.0,20
14.9,52.28910446173312,276.80382357566697,100.0,-0.0,1.38,3120,3120,3120,3120,3.71,19.65,0.0,20
15.0,52.660345005458154,278.76906667988965,100.0,-0.0,1.38,3060,3060,3060,3060,3.71,19.65,0.0,20
15.1,53.03158554918319,280.7343097841123,100.0,-0.0,1.38,3120,3120,3120,3120,3.71,19.65,0.0,20
15.2,53.40282609290823,282.699552888335,100.0,-0.0,1.38,3060,3060,3060,3060,3.71,19.65,0.0,20
15.3,53.774066636633265,284.6647959925577,100.0,-0.0,1.38,3120,3120,3120,3120,3.71,19.65,0.0,20
15.4,54.1453071803583,286.63003909678037,100.0,-0.0,1.38,3060,3060,3060,3060,3.71,19.65,0.0,20
15.5,54.51654772408334,288.59528220100304,100.0,-0.0,1.38,3120,3120,3120,3120,3.71,19.65,0.0,20
15.6,54.887788267808375,290.5605253052257,100.0,-0.0,1.38,3060,3060,3060,3060,3.71,19.65,0.0,20
15.7,55.25902881153341,292.5257684094484,100.0,-0.0,1.38,3120,3120,3120,3120,3.71,19.65,0.0,20
15.8,55.63026935525845,294.4910115136711,100.0,-0.0,1.38,3060,3060,3060,3060,3.71,19.65,0.0,20
15.9,56.001509898983485,296.45625461789376,100.0,-0.0,1.38,3120,3120,3120,3120,3.71,19.65,0.0,20
16.0,56.37275044270852,298.42149772211644,100.0,-0.0,1.38,3060,3060,3060,3060,3.71,19.65,0.0,20
16.1,56.74399098643356,300.3867408263391,100.0,-0.0,1.38,3120,3120,3120,3120,3.71,19.65,0.0,20
16.2,57.115231530158596,302.3519839305618,100.0,-0.0,1.38,3060,3060,3060,3060,3.71,19.65,0.0,20
16.3,57.48647207388363,304.3172270347845,100.0,-0.0,1.38,3120,3120,3120,3120,3.71,19.65,0.0,20
16.4,57.85771261760867,306.28247013900716,100.0,-0.0,1.38,3060,3060,3060,3060,3.71,19.65,0.0,20
16.5,58.228953161333706,308.24771324322984,100.0,-0.0,1.38,3120,3120,3120,3120,3.71,19.65,0.0,20
16.6,58.60019370505874,310.2129563474525,100.0,-0.0,1.38,3060,3060,3060,3060,3.71,19.65,0.0,20
16.7,58.97143424878378,312.1781994516752,100.0,-0.0,1.38,3120,3120,3120,3120,3.71,19.65,0.0,20
16.8,59.34267479250882,314.1434425558979,100.0,-0.0,1.38,3060,3060,3060,3060,3.71,19.65,0.0,20
16.9,59.71391533623385,316.10868566012056,100.0,-0.0,1.38,3120,3120,3120,3120,3.71,19.65,0.0,20
17.0,60.08515587995889,318.07392876434324,100.0,-0.0,1.38,3060,3060,3060,3060,3.71,19.65,0.0,20
17.1,60.45639642368393,320.0391718685659,100.0,-0.0,1.38,3120,3120,3120,3120,3.71,19.65,0.0,20
17.2,60.827636967408964,322.0044149727886,100.0,-0.0,1.38,3060,3060,3060,3060,3.71,19.65,0.0,20
17.3,61.19887751113401,323.9696580770113,100.0,-0.0,1.38,3120,3120,3120,3120,3.71,19.65,0.0,20
17.4,61.57011805485905,325.93490118123395,100.0,-0.0,1.38,3060,3060,3060,3060,3.71,19.65,0.0,20
17.5,61.941358598584095,327.90014428545663,100.0,-0.0,1.38,3120,3120,3120,3120,3.71,19.65,0.0,20
17.6,62.31259914230914,329.8653873896793,100.0,-0.0,1.38,3060,3060,3060,3060,3.71,19.65,0.0,20
17.7,62.68383968603418,331.830630493902,100.0,-0.0,1.38,3120,3120,3120,3120,3.71,19.65,0.0,20
17.8,63.05508022975923,333.7958735981247,100.0,-0.0,1.38,3060,3060,3060,3060,3.71,19.65,0.0,20
17.9,63.426320773484264,335.76111670234735,100.0,-0.0,1.38,3120,3120,3120,3120,3.71,19.65,0.0,20
18.0,63.79756131720931,337.72635980657003,100.0,-0.0,1.38,3060,3060,3060,3060,3.71,19.65,0.0,20
18.1,64.16880186093435,339.6916029107927,100.0,-0.0,1.38,3120,3120,3120,3120,3.71,19.65,0.0,20
18.2,64.54004240465939,341.6568460150154,100.0,-0.0,1.38,3060,3060,3060,3060,3.71,19.65,0.0,20
18.3,64.91128294838443,343.62208911923807,100.0,-0.0,1.38,3120,3120,3120,3120,3.71,19.65,0.0,20
18.4,65.28252349210946,345.58733222346075,100.0,-0.0,1.38,3060,3060,3060,3060,3.71,19.65,0.0,20
18.5,65.6537640358345,347.5525753276834,100.0,-0.0,1.38,3120,3120,3120,3120,3.71,19.65,0.0,20
18.6,66.02500457955954,349.5178184319061,100.0,-0.0,1.38,3060,3060,3060,3060,3.71,19.65,0.0,20
18.7,66.39624512328457,351.4830615361288,100.0,-0.0,1.38,3120,3120,3120,3120,3.71,19.65,0.0,20
18.8,66.76748566700961,353.44830464035147,100.0,-0.0,1.38,3060,3060,3060,3060,3.71,19.65,0.0,20
18.9,67.13872621073465,355.41354774457415,100.0,-0.0,1.38,3120,3120,3120,3120,3.71,19.65,0.0,20
19.0,67.50996675445968,357.3787908487968,100.0,-0.0,1.38,3060,3060,3060,3060,3.71,19.65,0.0,20
19.1,67.88120729818472,359.3440339530195,100.0,-0.0,1.38,3120,3120,3120,3120,3.71,19.65,0.0,20
19.2,68.25244784190976,361.3092770572422,100.0,-0.0,1.38,3060,3060,3060,3060,3.71,19.65,0.0,20
19.3,68.6236883856348,363.27452016146486,100.0,-0.0,1.38,3120,3120,3120,3120,3.71,19.65,0.0,20
19.4,68.99492892935983,365.23976326568754,100.0,-0.0,1.38,3060,3060,3060,3060,3.71,19.65,0.0,20
19.5,69.36616947308487,367.2050063699102,100.0,-0.0,1.38,3120,3120,3120,3120,3.71,19.65,0.0,20
19.6,69.7374100168099,369.1702494741329,100.0,-0.0,1.38,3060,3060,3060,3060,3.71,19.65,0.0,20
19.7,70.10865056053494,371.1354925783556,100.0,-0.0,1.38,3120,3120,3120,3120,3.71,19.65,0.0,20
19.8,70.47989110425998,373.10073568257826,100.0,-0.0,1.38,3060,3060,3060,3060,3.71,19.65,0.0,20
19.9,70.85113164798501,375.06597878680094,100.0,-0.0,1.38,3120,3120,3120,3120,3.71,19.65,0.0,20
20.0,71.22237219171005,377.0312218910236,100.0,-0.0,1.38,3060,3060,3060,3060,3.71,19.65,0.0,20
20.1,71.59361273543509,378.9964649952463,100.0,-0.0,1.38,3120,3120,3120,3120,3.71,19.65,0.0,20
20.2,71.96485327916012,380.961708099469,100.0,-0.0,1.38,3060,3060,3060,3060,3.71,19.65,0.0,20
20.3,72.33609382288516,382.92695120369166,100.0,-0.0,1.38,3120,3120,3120,3120,3.71,19.65,0.0,20
20.4,72.7073343666102,384.89219430791434,100.0,-0.0,1.38,3060,3060,3060,3060,3.71,19.65,0.0,20
20.5,73.07857491033523,386.857437412137,100.0,-0.0,1.38,3120,3120,3120,3120,3.71,19.65,0.0,20
20.6,73.44981545406027,388.8226805163597,100.0,-0.0,1.38,3060,3060,3060,3060,3.71,19.65,0.0,20
20.7,73.82105599778531,390.7879236205824,100.0,-0.0,1.38,3120,3120,3120,3120,3.71,19.65,0.0,20
20.8,74.19229654151034,392.75316672480506,100.0,-0.0,1.38,3060,3060,3060,3060,3.71,19.65,0.0,20
20.9,74.56353708523538,394.71840982902773,100.0,-0.0,1.38,3120,3120,3120,3120,3.71,19.65,0.0,20
