Time(s),X,Y,Z,Pitch,Yaw,FL,FR,RL,RR,Vx,Vy,Vz,Hor_Speed
0.1,0.33587598702646526,0.3816652131179116,500.4304602527716,-0.32,0.85,2160,2160,2160,2160,3.36,3.82,4.3,16.95
0.2,0.7286729090059347,0.8280112656195487,500.92268584861523,-0.32,0.85,2220,2220,2220,2220,3.93,4.46,4.92,16.95
0.3,1.188037162111615,1.3499996254081728,501.485539295928,-0.32,0.85,2280,2280,2280,2280,4.59,5.22,5.63,16.95
0.4,1.7252499181789063,1.9604494013783962,502.129154755642,-0.32,0.85,2340,2340,2340,2340,5.37,6.1,6.44,16.95
0.5,2.353504170289858,2.674352158008827,502.8651205065147,-0.32,0.85,2400,2400,2400,2400,6.28,7.14,7.36,16.95
0.6,3.0882287292987476,3.50924008161319,503.70668759177136,-0.32,0.85,2460,2460,2460,2460,7.35,8.35,8.42,16.95
0.7,3.947467128079173,4.485616539760477,504.669008403776,-0.32,0.85,2520,2520,2520,2520,8.59,9.76,9.62,16.95
0.8,4.9523207387093535,5.627459607640323,505.76940950244153,-0.32,0.85,2580,2580,2580,2580,10.05,11.42,11.0,16.95
0.9,6.071907362130904,6.899676984700028,507.02770357946764,-0.32,0.85,2640,2640,2640,2640,11.2,12.72,12.58,16.95
1.0,7.191493985552455,8.171894361759733,508.4625710887062,-0.32,0.85,2700,2700,2700,2700,11.2,12.72,14.35,16.95
1.1,8.311080608974006,9.444111738819437,509.8974385979448,-0.31,0.85,2760,2760,2760,2760,11.2,12.72,14.35,16.95
1.2,9.430667232395557,10.716329115879143,511.3323061071834,-0.31,0.85,2820,2820,2820,2820,11.2,12.72,14.35,16.95
1.3,10.550253855817108,11.988546492938848,512.7671736164219,-0.31,0.85,2880,2880,2880,2880,11.2,12.72,14.35,16.95
1.4,11.669840479238658,13.260763869998552,514.2020411256605,-0.31,0.85,2940,2940,2940,2940,11.2,12.72,14.35,16.95
1.5,12.789427102660209,14.532981247058258,515.636908634899,-0.31,0.85,3000,3000,3000,3000,11.2,12.72,14.35,16.95
1.6,13.90901372608176,15.805198624117963,517.0717761441375,-0.31,0.85,3060,3060,3060,3060,11.2,12.72,14.35,16.95
1.7,15.02860034950331,17.077416001177667,518.506643653376,-0.31,0.85,3120,3120,3120,3120,11.2,12.72,14.35,16.95
1.8,16.14818697292486,18.34963337823737,519.9415111626146,-0.31,0.85,3180,3180,3180,3180,11.2,12.72,14.35,16.95
1.9,17.267773596346412,19.621850755297075,521.3763786718531,-0.31,0.85,3240,3240,3240,3240,11.2,12.72,14.35,16.95
2.0,18.387360219767963,20.89406813235678,522.8112461810916,-0.31,0.85,3300,3300,3300,3300,11.2,12.72,14.35,16.95
2.1,19.506946843189514,22.166285509416483,524.2461136903302,-0.3,0.85,3360,3360,3360,3360,11.2,12.72,14.35,16.95
2.2,20.626533466611065,23.438502886476186,525.6809811995687,-0.3,0.85,3420,3420,3420,3420,11.2,12.72,14.35,16.95
2.3,21.746120090032615,24.71072026353589,527.1158487088072,-0.3,0.85,3480,3480,3480,3480,11.2,12.72,14.35,16.95
2.4,22.865706713454166,25.982937640595594,528.5507162180457,-0.3,0.85,3540,3540,3540,3540,11.2,12.72,14.35,16.95
2.5,23.985293336875717,27.255155017655298,529.9855837272843,-0.3,0.85,3600,3600,3600,3600,11.2,12.72,14.35,16.95
2.6,25.104879960297268,28.527372394715,531.4204512365228,-0.3,0.85,3660,3660,3660,3660,11.2,12.72,14.35,16.95
2.7,26.22446658371882,29.799589771774706,532.8553187457613,-0.3,0.85,3720,3720,3720,3720,11.2,12.72,14.35,16.95
2.8,27.34405320714037,31.07180714883441,534.2901862549999,-0.3,0.85,3780,3780,3780,3780,11.2,12.72,14.35,16.95
2.9,28.46363983056192,32.34402452589411,535.7250537642384,-0.3,0.85,3840,3840,3840,3840,11.2,12.72,14.35,16.95
3.0,29.58322645398347,33.61624190295382,537.1599212734769,-0.3,0.85,3900,3900,3900,3900,11.2,12.72,14.35,16.95
3.1,30.702813077405022,34.88845928001352,538.5947887827155,-0.29,0.85,3960,3960,3960,3960,11.2,12.72,14.35,16.95
3.2,31.822399700826573,36.160676657073225,540.029656291954,-0.29,0.85,4020,4020,4020,4020,11.2,12.72,14.35,16.95
3.3,32.94198632424812,37.43289403413293,541.4645238011925,-0.29,0.85,4080,4080,4080,4080,11.2,12.72,14.35,16.95
3.4,34.06157294766967,38.70511141119263,542.899391310431,-0.29,0.85,4140,4140,4140,4140,11.2,12.72,14.35,16.95
3.5,35.181159571091214,39.977328788252336,544.3342588196696,-0.29,0.85,4200,4200,4200,4200,11.2,12.72,14.35,16.95
3.6,36.30074619451276,41.24954616531204,545.7691263289081,-0.29,0.85,4260,4260,4260,4260,11.2,12.72,14.35,16.95
3.7,37.42033281793431,42.521763542371744,547.2039938381466,-0.29,0.85,4320,4320,4320,4320,11.2,12.72,14.35,16.95
3.8,38.539919441355856,43.79398091943145,548.6388613473852,-0.29,0.85,4380,4380,4380,4380,11.2,12.72,14.35,16.95
3.9,39.6595060647774,45.06619829649115,550.0737288566237,-0.29,0.85,4440,4440,4440,4440,11.2,12.72,14.35,16.95
4.0,40.77909268819895,46.338415673550855,551.5085963658622,-0.28,0.85,4500,4500,4500,4500,11.2,12.72,14.35,16.95
4.1,41.8986793116205,47.61063305061056,552.9434638751007,-0.28,0.85,4560,4560,4560,4560,11.2,12.72,14.35,16.95
4.2,43.018265935042045,48.88285042767026,554.3783313843393,-0.28,0.85,4620,4620,4620,4620,11.2,12.72,14.35,16.95
4.3,44.13785255846359,50.15506780472997,555.8131988935778,-0.28,0.85,4680,4680,4680,4680,11.2,12.72,14.35,16.95
4.4,45.25743918188514,51.42728518178967,557.2480664028163,-0.28,0.85,4740,4740,4740,4740,11.2,12.72,14.35,16.95
4.5,46.37702580530669,52.699502558849375,558.6829339120549,-0.28,0.85,4800,4800,4800,4800,11.2,12.72,14.35,16.95
4.6,47.49661242872824,53.97171993590908,560.1178014212934,-0.28,0.85,4860,4860,4860,4860,11.2,12.72,14.35,16.95
4.7,48.61619905214979,55.24393731296878,561.5526689305319,-0.28,0.85,4920,4920,4920,4920,11.2,12.72,14.35,16.95
4.8,49.735785675571336,56.516154690028486,562.9875364397705,-0.28,0.85,4980,4980,4980,4980,11.2,12.72,14.35,16.95
4.9,50.85537229899288,57.78837206708819,564.422403949009,-0.27,0.85,5000,5000,5000,5000,11.2,12.72,14.35,16.95
5.0,51.97495892241443,59.060589444147894,565.8572714582475,-0.27,0.85,5000,5000,5000,5000,11.2,12.72,14.35,16.95
5.1,53.09454554583598,60.3328068212076,567.292138967486,-0.27,0.85,5000,5000,5000,5000,11.2,12.72,14.35,16.95
5.2,54.214132169257525,61.6050241982673,568.7270064767246,-0.27,0.85,5000,5000,5000,5000,11.2,12.72,14.35,16.95
5.3,55.33371879267907,62.877241575327005,570.1618739859631,-0.27,0.85,5000,5000,5000,5000,11.2,12.72,14.35,16.95
5.4,56.45330541610062,64.14945895238671,571.5967414952016,-0.27,0.85,5000,5000,5000,5000,11.2,12.72,14.35,16.95
5.5,57.572892039522166,65.42167632944641,573.0316090044402,-0.27,0.85,5000,5000,5000,5000,11.2,12.72,14.35,16.95
5.6,58.692478662943714,66.69389370650612,574.4664765136787,-0.27,0.85,5000,5000,5000,5000,11.2,12.72,14.35,16.95
5.7,59.81206528636526,67.96611108356582,575.9013440229172,-0.27,0.85,5000,5000,5000,5000,11.2,12.72,14.35,16.95
5.8,60.93165190978681,69.23832846062552,577.3362115321557,-0.26,0.85,5000,5000,5000,5000,11.2,12.72,14.35,16.95
5.9,62.05123853320836,70.51054583768523,578.7710790413943,-0.26,0.85,5000,5000,5000,5000,11.2,12.72,14.35,16.95
6.0,63.17082515662991,71.78276321474493,580.2059465506328,-0.26,0.85,5000,5000,5000,5000,11.2,12.72,14.35,16.95
6.1,64.29041178005146,73.05498059180464,581.6408140598713,-0.26,0.85,5000,5000,5000,5000,11.2,12.72,14.35,16.95
6.2,65.40999840347301,74.32719796886434,583.0756815691099,-0.26,0.85,5000,5000,5000,5000,11.2,12.72,14.35,16.95
6.3,66.52958502689457,75.59941534592404,584.5105490783484,-0.26,0.85,5000,5000,5000,5000,11.2,12.72,14.35,16.95
6.4,67.64917165031612,76.87163272298375,585.9454165875869,-0.26,0.85,5000,5000,5000,5000,11.2,12.72,14.35,16.95
6.5,68.76875827373767,78.14385010004345,587.3802840968254,-0.26,0.85,5000,5000,5000,5000,11.2,12.72,14.35,16.95
6.6,69.88834489715923,79.41606747710316,588.815151606064,-0.25,0.85,5000,5000,5000,5000,11.2,12.72,14.35,16.95
6.7,71.00793152058078,80.68828485416286,590.2500191153025,-0.25,0.85,5000,5000,5000,5000,11.2,12.72,14.35,16.95
6.8,72.12751814400234,81.96050223122256,591.684886624541,-0.25,0.85,5000,5000,5000,5000,11.2,12.72,14.35,16.95
6.9,73.24710476742389,83.23271960828227,593.1197541337796,-0.25,0.85,5000,5000,5000,5000,11.2,12.72,14.35,16.95
7.0,74.36669139084545,84.50493698534197,594.5546216430181,-0.25,0.85,5000,5000,5000,5000,11.2,12.72,14.35,16.95
7.1,75.486278014267,85.77715436240167,595.9894891522566,-0.25,0.85,5000,5000,5000,5000,11.2,12.72,14.35,16.95
7.2,76.60586463768855,87.04937173946138,597.4243566614952,-0.25,0.85,5000,5000,5000,5000,11.2,12.72,14.35,16.95
7.3,77.72545126111011,88.32158911652108,598.8592241707337,-0.25,0.85,5000,5000,5000,5000,11.2,12.72,14.35,16.95
7.4,78.84503788453166,89.59380649358079,600.2940916799722,-0.24,0.85,5000,5000,5000,5000,11.2,12.72,14.35,16.95
7.5,79.96462450795322,90.86602387064049,601.7289591892107,-0.24,0.85,5000,5000,5000,5000,11.2,12.72,14.35,16.95
7.6,81.08421113137477,92.1382412477002,603.1638266984493,-0.24,0.85,5000,5000,5000,5000,11.2,12.72,14.35,16.95
7.7,82.20379775479633,93.4104586247599,604.5986942076878,-0.24,0.85,5000,5000,5000,5000,11.2,12.72,14.35,16.95
7.8,83.32338437821788,94.6826760018196,606.0335617169263,-0.24,0.85,5000,5000,5000,5000,11.2,12.72,14.35,16.95
7.9,84.44297100163944,95.9548933788793,607.4684292261649,-0.24,0.85,5000,5000,5000,5000,11.2,12.72,14.35,16.95
8.0,85.56255762506099,97.22711075593901,608.9032967354034,-0.24,0.85,5000,5000,5000,5000,11.2,12.72,14.35,16.95
8.1,86.68214424848254,98.49932813299871,610.3381642446419,-0.23,0.85,5000,5000,5000,5000,11.2,12.72,14.35,16.95
8.2,87.8017308719041,99.77154551005842,611.7730317538804,-0.23,0.85,5000,5000,5000,5000,11.2,12.72,14.35,16.95
8.3,88.92131749532565,101.04376288711812,613.207899263119,-0.23,0.85,5000,5000,5000,5000,11.2,12.72,14.35,16.95
8.4,90.0409041187472,102.31598026417782,614.6427667723575,-0.23,0.85,5000,5000,5000,5000,11.2,12.72,14.35,16.95
8.5,91.16049074216876,103.58819764123753,616.077634281596,-0.23,0.85,5000,5000,5000,5000,11.2,12.72,14.35,16.95
8.6,92.28007736559032,104.86041501829723,617.5125017908346,-0.23,0.85,5000,5000,5000,5000,11.2,12.72,14.35,16.95
8.7,93.39966398901187,106.13263239535694,618.9473693000731,-0.23,0.85,5000,5000,5000,5000,11.2,12.72,14.35,16.95
8.8,94.51925061243342,107.40484977241664,620.3822368093116,-0.23,0.85,5000,5000,5000,5000,11.2,12.72,14.35,16.95
8.9,95.63883723585498,108.67706714947634,621.8171043185502,-0.22,0.85,5000,5000,5000,5000,11.2,12.72,14.35,16.95
9.0,96.75842385927653,109.94928452653605,623.2519718277887,-0.22,0.85,5000,5000,5000,5000,11.2,12.72,14.35,16.95
9.1,97.87801048269809,111.22150190359575,624.6868393370272,-0.22,0.85,5000,5000,5000,5000,11.2,12.72,14.35,16.95
9.2,98.99759710611964,112.49371928065545,626.1217068462657,-0.22,0.85,5000,5000,5000,5000,11.2,12.72,14.35,16.95
9.3,100.1171837295412,113.76593665771516,627.5565743555043,-0.22,0.85,5000,5000,5000,5000,11.2,12.72,14.35,16.95
9.4,101.23677035296275,115.03815403477486,628.9914418647428,-0.22,0.85,5000,5000,5000,5000,11.2,12.72,14.35,16.95
9.5,102.3563569763843,116.31037141183457,630.4263093739813,-0.22,0.85,5000,5000,5000,5000,11.2,12.72,14.35,16.95
9.6,103.47594359980586,117.58258878889427,631.8611768832199,-0.21,0.85,5000,5000,5000,5000,11.2,12.72,14.35,16.95
9.7,104.59553022322741,118.85480616595397,633.2960443924584,-0.21,0.85,5000,5000,5000,5000,11.2,12.72,14.35,16.95
9.8,105.71511684664897,120.12702354301368,634.7309119016969,-0.21,0.85,5000,5000,5000,5000,11.2,12.72,14.35,16.95
9.9,106.83470347007052,121.39924092007338,636.1657794109354,-0.21,0.85,5000,5000,5000,5000,11.2,12.72,14.35,16.95
10.0,107.95429009349208,122.67145829713309,637.600646920174,-0.21,0.85,5000,5000,5000,5000,11.2,12.72,14.35,16.95
10.1,109.07387671691363,123.94367567419279,639.0355144294125,-0.21,0.85,5000,5000,5000,5000,11.2,12.72,14.35,16.95
10.2,110.19346334033519,125.2158930512525,640.470381938651,-0.2,0.85,5000,5000,5000,5000,11.2,12.72,14.35,16.95
10.3,111.31304996375674,126.4881104283122,641.9052494478896,-0.2,0.85,5000,5000,5000,5000,11.2,12.72,14.35,16.95
10.4,112.4326365871783,127.7603278053719,643.3401169571281,-0.2,0.85,5000,5000,5000,5000,11.2,12.72,14.35,16.95
10.5,113.55222321059985,129.03254518243162,644.7749844663666,-0.2,0.85,5000,5000,5000,5000,11.2,12.72,14.35,16.95
10.6,114.6718098340214,130.30476255949134,646.2098519756051,-0.2,0.85,5000,5000,5000,5000,11.2,12.72,14.35,16.95
10.7,115.79139645744296,131.57697993655106,647.6447194848437,-0.2,0.85,5000,5000,5000,5000,11.2,12.72,14.35,16.95
10.8,116.91098308086451,132.84919731361077,649.0795869940822,-0.2,0.85,5000,5000,5000,5000,11.2,12.72,14.35,16.95
10.9,118.03056970428607,134.1214146906705,650.5144545033207,-0.19,0.85,5000,5000,5000,5000,11.2,12.72,14.35,16.95
11.0,119.15015632770762,135.3936320677302,651.9493220125593,-0.19,0.85,5000,5000,5000,5000,11.2,12.72,14.35,16.95
11.1,120.26974295112917,136.66584944478993,653.3841895217978,-0.19,0.85,5000,5000,5000,5000,11.2,12.72,14.35,16.95
11.2,121.38932957455073,137.93806682184965,654.8190570310363,-0.19,0.85,5000,5000,5000,5000,11.2,12.72,14.35,16.95
11.3,122.50891619797228,139.21028419890936,656.2539245402749,-0.19,0.85,5000,5000,5000,5000,11.2,12.72,14.35,16.95
11.4,123.62850282139384,140.48250157596908,657.6887920495134,-0.19,0.85,5000,5000,5000,5000,11.2,12.72,14.35,16.95
11.5,124.74808944481539,141.7547189530288,659.1236595587519,-0.18,0.85,5000,5000,5000,5000,11.2,12.72,14.35,16.95
11.6,125.86767606823695,143.02693633008852,660.5585270679904,-0.18,0.85,5000,5000,5000,5000,11.2,12.72,14.35,16.95
11.7,126.9872626916585,144.29915370714824,661.993394577229,-0.18,0.85,5000,5000,5000,5000,11.2,12.72,14.35,16.95
11.8,128.10684931508004,145.57137108420795,663.4282620864675,-0.18,0.85,5000,5000,5000,5000,11.2,12.72,14.35,16.95
11.9,129.2264359385016,146.84358846126767,664.863129595706,-0.18,0.85,5000,5000,5000,5000,11.2,12.72,14.35,16.95
12.0,130.34602256192315,148.1158058383274,666.2979971049446,-0.18,0.85,5000,5000,5000,5000,11.2,12.72,14.35,16.95
12.1,131.4656091853447,149.3880232153871,667.7328646141831,-0.17,0.85,5000,5000,5000,5000,11.2,12.72,14.35,16.95
12.2,132.58519580876626,150.66024059244683,669.1677321234216,-0.17,0.85,5000,5000,5000,5000,11.2,12.72,14.35,16.95
12.3,133.7047824321878,151.93245796950654,670.6025996326601,-0.17,0.85,5000,5000,5000,5000,11.2,12.72,14.35,16.95
12.4,134.82436905560937,153.20467534656626,672.0374671418987,-0.17,0.85,5000,5000,5000,5000,11.2,12.72,14.35,16.95
12.5,135.94395567903092,154.47689272362598,673.4723346511372,-0.17,0.85,5000,5000,5000,5000,11.2,12.72,14.35,16.95
12.6,137.06354230245248,155.7491101006857,674.9072021603757,-0.17,0.85,5000,5000,5000,5000,11.2,12.72,14.35,16.95
12.7,138.18312892587403,157.02132747774542,676.3420696696143,-0.16,0.85,5000,5000,5000,5000,11.2,12.72,14.35,16.95
12.8,139.30271554929558,158.29354485480513,677.7769371788528,-0.16,0.85,5000,5000,5000,5000,11.2,12.72,14.35,16.95
12.9,140.42230217271714,159.56576223186485,679.2118046880913,-0.16,0.85,5000,5000,5000,5000,11.2,12.72,14.35,16.95
13.0,141.5418887961387,160.83797960892457,680.6466721973298,-0.16,0.85,5000,5000,5000,5000,11.2,12.72,14.35,16.95
13.1,142.66147541956025,162.1101969859843,682.0815397065684,-0.16,0.85,5000,5000,5000,5000,11.2,12.72,14.35,16.95
13.2,143.7810620429818,163.382414363044,683.5164072158069,-0.16,0.85,5000,5000,5000,5000,11.2,12.72,14.35,16.95
13.3,144.90064866640336,164.65463174010372,684.9512747250454,-0.15,0.85,5000,5000,5000,5000,11.2,12.72,14.35,16.95
13.4,146.0202352898249,165.92684911716344,686.386142234284,-0.15,0.85,5000,5000,5000,5000,11.2,12.72,14.35,16.95
13.5,147.13982191324646,167.19906649422316,687.8210097435225,-0.15,0.85,5000,5000,5000,5000,11.2,12.72,14.35,16.95
13.6,148.25940853666802,168.47128387128288,689.255877252761,-0.15,0.85,5000,5000,5000,5000,11.2,12.72,14.35,16.95
13.7,149.37899516008957,169.7435012483426,690.6907447619996,-0.15,0.85,5000,5000,5000,5000,11.2,12.72,14.35,16.95
13.8,150.49858178351113,171.01571862540231,692.1256122712381,-0.14,0.85,5000,5000,5000,5000,11.2,12.72,14.35,16.95
13.9,151.61816840693268,172.28793600246203,693.5604797804766,-0.14,0.85,5000,5000,5000,5000,11.2,12.72,14.35,16.95
14.0,152.73775503035424,173.56015337952175,694.9953472897151,-0.14,0.85,5000,5000,5000,5000,11.2,12.72,14.35,16.95
14.1,153.8573416537758,174.83237075658147,696.4302147989537,-0.14,0.85,5000,5000,5000,5000,11.2,12.72,14.35,16.95
14.2,154.97692827719735,176.1045881336412,697.8650823081922,-0.14,0.85,5000,5000,5000,5000,11.2,12.72,14.35,16.95
14.3,156.0965149006189,177.3768055107009,699.2999498174307,-0.13,0.85,5000,5000,5000,5000,11.2,12.72,14.35,16.95
14.4,157.21610152404045,178.64902288776062,700.7348173266693,-0.13,0.85,5000,5000,5000,5000,11.2,12.72,14.35,16.95
14.5,158.335688147462,179.92124026482034,702.1696848359078,-0.13,0.85,5000,5000,5000,5000,11.2,12.72,14.35,16.95
14.6,159.45527477088356,181.19345764188006,703.6045523451463,-0.13,0.85,5000,5000,5000,5000,11.2,12.72,14.35,16.95
14.7,160.57486139430512,182.46567501893978,705.0394198543848,-0.13,0.85,5000,5000,5000,5000,11.2,12.72,14.35,16.95
14.8,161.69444801772667,183.7378923959995,706.4742873636234,-0.13,0.85,5000,5000,5000,5000,11.2,12.72,14.35,16.95
14.9,162.81403464114823,185.0101097730592,707.9091548728619,-0.12,0.85,5000,5000,5000,5000,11.2,12.72,14.35,16.95
15.0,163.93362126456978,186.28232715011893,709.3440223821004,-0.12,0.85,5000,5000,5000,5000,11.2,12.72,14.35,16.95
15.1,165.05320788799133,187.55454452717865,710.778889891339,-0.12,0.85,5000,5000,5000,5000,11.2,12.72,14.35,16.95
15.2,166.1727945114129,188.82676190423837,712.2137574005775,-0.12,0.85,5000,5000,5000,5000,11.2,12.72,14.35,16.95
15.3,167.29238113483444,190.09897928129809,713.648624909816,-0.12,0.85,5000,5000,5000,5000,11.2,12.72,14.35,16.95
15.4,168.411967758256,191.3711966583578,715.0834924190546,-0.11,0.85,5000,5000,5000,5000,11.2,12.72,14.35,16.95
15.5,169.53155438167755,192.64341403541752,716.5183599282931,-0.11,0.85,5000,5000,5000,5000,11.2,12.72,14.35,16.95
15.6,170.6511410050991,193.91563141247724,717.9532274375316,-0.11,0.85,5000,5000,5000,5000,11.2,12.72,14.35,16.95
15.7,171.77072762852066,195.18784878953696,719.3880949467701,-0.11,0.85,5000,5000,5000,5000,11.2,12.72,14.35,16.95
15.8,172.89031425194221,196.46006616659668,720.8229624560087,-0.1,0.85,5000,5000,5000,5000,11.2,12.72,14.35,16.95
15.9,174.00990087536377,197.7322835436564,722.2578299652472,-0.1,0.85,5000,5000,5000,5000,11.2,12.72,14.35,16.95
16.0,175.12948749878532,199.0045009207161,723.6926974744857,-0.1,0.85,5000,5000,5000,5000,11.2,12.72,14.35,16.95
16.1,176.24907412220688,200.27671829777583,725.1275649837243,-0.1,0.85,5000,5000,5000,5000,11.2,12.72,14.35,16.95
16.2,177.36866074562843,201.54893567483555,726.5624324929628,-0.1,0.85,5000,5000,5000,5000,11.2,12.72,14.35,16.95
16.3,178.48824736905,202.82115305189527,727.9973000022013,-0.09,0.85,5000,5000,5000,5000,11.2,12.72,14.35,16.95
16.4,179.60783399247154,204.09337042895498,729.4321675114398,-0.09,0.85,5000,5000,5000,5000,11.2,12.72,14.35,16.95
16.5,180.7274206158931,205.3655878060147,730.8670350206784,-0.09,0.85,5000,5000,5000,5000,11.2,12.72,14.35,16.95
16.6,181.84700723931465,206.63780518307442,732.3019025299169,-0.09,0.85,5000,5000,5000,5000,11.2,12.72,14.35,16.95
16.7,182.9665938627362,207.91002256013414,733.7367700391554,-0.09,0.85,5000,5000,5000,5000,11.2,12.72,14.35,16.95
16.8,184.08618048615776,209.18223993719386,735.171637548394,-0.08,0.85,5000,5000,5000,5000,11.2,12.72,14.35,16.95
16.9,185.2057671095793,210.45445731425357,736.6065050576325,-0.08,0.85,5000,5000,5000,5000,11.2,12.72,14.35,16.95
17.0,186.32535373300087,211.7266746913133,738.041372566871,-0.08,0.85,5000,5000,5000,5000,11.2,12.72,14.35,16.95
17.1,187.44494035642242,212.998892068373,739.4762400761095,-0.08,0.85,5000,5000,5000,5000,11.2,12.72,14.35,16.95
17.2,188.56452697984398,214.27110944543273,740.9111075853481,-0.07,0.85,5000,5000,5000,5000,11.2,12.72,14.35,16.95
17.3,189.68411360326553,215.54332682249245,742.3459750945866,-0.07,0.85,5000,5000,5000,5000,11.2,12.72,14.35,16.95
17.4,190.80370022668708,216.81554419955216,743.7808426038251,-0.07,0.85,5000,5000,5000,5000,11.2,12.72,14.35,16.95
17.5,191.92328685010864,218.08776157661188,745.2157101130637,-0.07,0.85,5000,5000,5000,5000,11.2,12.72,14.35,16.95
17.6,193.0428734735302,219.3599789536716,746.6505776223022,-0.06,0.85,5000,5000,5000,5000,11.2,12.72,14.35,16.95
