Time(s),X,Y,Z,Pitch,Yaw,FL,FR,RL,RR,Vx,Vy,Vz,Hor_Speed
0.1,999.575735931288,999.575735931288,100.0,-0.0,-2.36,2760,2760,2760,2760,-4.24,-4.24,0.0,20
0.2,999.0666190488337,999.0666190488337,100.0,-0.0,-2.36,2820,2820,2820,2820,-5.09,-5.09,0.0,20
0.3,998.4556787898885,998.4556787898885,100.0,-0.0,-2.36,2880,2880,2880,2880,-6.11,-6.11,0.0,20
0.4,997.7225504791542,997.7225504791542,100.0,-0.0,-2.36,2940,2940,2940,2940,-7.33,-7.33,0.0,20
0.5,996.8427965062731,996.8427965062731,100.0,-0.0,-2.36,2912,2912,2912,2912,-8.8,-8.8,0.0,20
0.6,995.7870917388158,995.7870917388158,100.0,-0.0,-2.36,2972,2972,2972,2972,-10.56,-10.56,0.0,20
0.7,994.520246017867,994.520246017867,100.0,-0.0,-2.36,3032,3032,3032,3032,-12.67,-12.67,0.0,20
0.8,993.1060324554938,993.1060324554938,100.0,-0.0,-2.36,3092,3092,3092,3092,-14.14,-14.14,0.0,20
0.9,991.6918188931207,991.6918188931207,100.0,-0.0,-2.36,3032,3032,3032,3032,-14.14,-14.14,0.0,20
1.0,990.2776053307476,990.2776053307476,100.0,-0.0,-2.36,3092,3092,3092,3092,-14.14,-14.14,0.0,20
1.1,988.8633917683745,988.8633917683745,100.0,-0.0,-2.36,3032,3032,3032,3032,-14.14,-14.14,0.0,20
1.2,987.4491782060014,987.4491782060014,100.0,-0.0,-2.36,3092,3092,3092,3092,-14.14,-14.14,0.0,20
1.3,986.0349646436283,986.0349646436283,100.0,-0.0,-2.36,3032,3032,3032,3032,-14.14,-14.14,0.0,20
1.4,984.6207510812552,984.6207510812552,100.0,-0.0,-2.36,3092,3092,3092,3092,-14.14,-14.14,0.0,20
1.5,983.2065375188821,983.2065375188821,100.0,-0.0,-2.36,3032,3032,3032,3032,-14.14,-14.14,0.0,20
1.6,981.792323956509,981.792323956509,100.0,-0.0,-2.36,3092,3092,3092,3092,-14.14,-14.14,0.0,20
1.7,980.3781103941359,980.3781103941359,100.0,-0.0,-2.36,3032,3032,3032,3032,-14.14,-14.14,0.0,20
1.8,978.9638968317628,978.9638968317628,100.0,-0.0,-2.36,3092,3092,3092,3092,-14.14,-14.14,0.0,20
1.9,977.5496832693897,977.5496832693897,100.0,-0.0,-2.36,3032,3032,3032,3032,-14.14,-14.14,0.0,20
2.0,976.1354697070166,976.1354697070166,100.0,-0.0,-2.36,3092,3092,3092,3092,-14.14,-14.14,0.0,20
2.1,974.7212561446435,974.7212561446435,100.0,-0.0,-2.36,3032,3032,3032,3032,-14.14,-14.14,0.0,20
2.2,973.3070425822704,973.3070425822704,100.0,-0.0,-2.36,3092,3092,3092,3092,-14.14,-14.14,0.0,20
2.3,971.8928290198972,971.8928290198972,100.0,-0.0,-2.36,3032,3032,3032,3032,-14.14,-14.14,0.0,20
2.4,970.4786154575241,970.4786154575241,100.0,-0.0,-2.36,3092,3092,3092,3092,-14.14,-14.14,0.0,20
2.5,969.064401895151,969.064401895151,100.0,-0.0,-2.36,3032,3032,3032,3032,-14.14,-14.14,0.0,20
2.6,967.6501883327779,967.6501883327779,100.0,-0.0,-2.36,3092,3092,3092,3092,-14.14,-14.14,0.0,20
2.7,966.2359747704048,966.2359747704048,100.0,-0.0,-2.36,3032,3032,3032,3032,-14.14,-14.14,0.0,20
2.8,964.8217612080317,964.8217612080317,100.0,-0.0,-2.36,3092,3092,3092,3092,-14.14,-14.14,0.0,20
2.9,963.4075476456586,963.4075476456586,100.0,-0.0,-2.36,3032,3032,3032,3032,-14.14,-14.14,0.0,20
3.0,961.9933340832855,961.9933340832855,100.0,-0.0,-2.36,3092,3092,3092,3092,-14.14,-14.14,0.0,20
3.1,960.5791205209124,960.5791205209124,100.0,-0.0,-2.36,3032,3032,3032,3032,-14.14,-14.14,0.0,20
3.2,959.1649069585393,959.1649069585393,100.0,-0.0,-2.36,3092,3092,3092,3092,-14.14,-14.14,0.0,20
3.3,957.7506933961662,957.7506933961662,100.0,-0.0,-2.36,3032,3032,3032,3032,-14.14,-14.14,0.0,20
3.4,956.3364798337931,956.3364798337931,100.0,-0.0,-2.36,3092,3092,3092,3092,-14.14,-14.14,0.0,20
3.5,954.92226627142,954.92226627142,100.0,-0.0,-2.36,3032,3032,3032,3032,-14.14,-14.14,0.0,20
3.6,953.5080527090469,953.5080527090469,100.0,-0.0,-2.36,3092,3092,3092,3092,-14.14,-14.14,0.0,20
3.7,952.0938391466738,952.0938391466738,100.0,-0.0,-2.36,3032,3032,3032,3032,-14.14,-14.14,0.0,20
3.8,950.6796255843007,950.6796255843007,100.0,-0.0,-2.36,3092,3092,3092,3092,-14.14,-14.14,0.0,20
3.9,949.2654120219275,949.2654120219275,100.0,-0.0,-2.36,3032,3032,3032,3032,-14.14,-14.14,0.0,20
4.0,947.8511984595544,947.8511984595544,100.0,-0.0,-2.36,3092,3092,3092,3092,-14.14,-14.14,0.0,20
4.1,946.4369848971813,946.4369848971813,100.0,-0.0,-2.36,3032,3032,3032,3032,-14.14,-14.14,0.0,20
4.2,945.0227713348082,945.0227713348082,100.0,-0.0,-2.36,3092,3092,3092,3092,-14.14,-14.14,0.0,20
4.3,943.6085577724351,943.6085577724351,100.0,-0.0,-2.36,3032,3032,3032,3032,-14.14,-14.14,0.0,20
4.4,942.194344210062,942.194344210062,100.0,-0.0,-2.36,3092,3092,3092,3092,-14.14,-14.14,0.0,20
4.5,940.7801306476889,940.7801306476889,100.0,-0.0,-2.36,3032,3032,3032,3032,-14.14,-14.14,0.0,20
4.6,939.3659170853158,939.3659170853158,100.0,-0.0,-2.36,3092,3092,3092,3092,-14.14,-14.14,0.0,20
4.7,937.9517035229427,937.9517035229427,100.0,-0.0,-2.36,3032,3032,3032,3032,-14.14,-14.14,0.0,20
4.8,936.5374899605696,936.5374899605696,100.0,-0.0,-2.36,3092,3092,3092,3092,-14.14,-14.14,0.0,20
4.9,935.1232763981965,935.1232763981965,100.0,-0.0,-2.36,3032,3032,3032,3032,-14.14,-14.14,0.0,20
5.0,933.7090628358234,933.7090628358234,100.0,-0.0,-2.36,3092,3092,3092,3092,-14.14,-14.14,0.0,20
5.1,932.2948492734503,932.2948492734503,100.0,-0.0,-2.36,3032,3032,3032,3032,-14.14,-14.14,0.0,20
5.2,930.8806357110772,930.8806357110772,100.0,-0.0,-2.36,3092,3092,3092,3092,-14.14,-14.14,0.0,20
5.3,929.466422148704,929.466422148704,100.0,-0.0,-2.36,3032,3032,3032,3032,-14.14,-14.14,0.0,20
5.4,928.052208586331,928.052208586331,100.0,-0.0,-2.36,3092,3092,3092,3092,-14.14,-14.14,0.0,20
5.5,926.6379950239578,926.6379950239578,100.0,-0.0,-2.36,3032,3032,3032,3032,-14.14,-14.14,0.0,20
5.6,925.2237814615847,925.2237814615847,100.0,-0.0,-2.36,3092,3092,3092,3092,-14.14,-14.14,0.0,20
5.7,923.8095678992116,923.8095678992116,100.0,-0.0,-2.36,3032,3032,3032,3032,-14.14,-14.14,0.0,20
5.8,922.3953543368385,922.3953543368385,100.0,-0.0,-2.36,3092,3092,3092,3092,-14.14,-14.14,0.0,20
5.9,920.9811407744654,920.9811407744654,100.0,-0.0,-2.36,3032,3032,3032,3032,-14.14,-14.14,0.0,20
6.0,919.5669272120923,919.5669272120923,100.0,-0.0,-2.36,3092,3092,3092,3092,-14.14,-14.14,0.0,20
6.1,918.1527136497192,918.1527136497192,100.0,-0.0,-2.36,3032,3032,3032,3032,-14.14,-14.14,0.0,20
6.2,916.7385000873461,916.7385000873461,100.0,-0.0,-2.36,3092,3092,3092,3092,-14.14,-14.14,0.0,20
6.3,915.324286524973,915.324286524973,100.0,-0.0,-2.36,3032,3032,3032,3032,-14.14,-14.14,0.0,20
6.4,913.9100729625999,913.9100729625999,100.0,-0.0,-2.36,3092,3092,3092,3092,-14.14,-14.14,0.0,20
6.5,912.4958594002268,912.4958594002268,100.0,-0.0,-2.36,3032,3032,3032,3032,-14.14,-14.14,0.0,20
6.6,911.0816458378537,911.0816458378537,100.0,-0.0,-2.36,3092,3092,3092,3092,-14.14,-14.14,0.0,20
6.7,909.6674322754806,909.6674322754806,100.0,-0.0,-2.36,3032,3032,3032,3032,-14.14,-14.14,0.0,20
6.8,908.2532187131075,908.2532187131075,100.0,-0.0,-2.36,3092,3092,3092,3092,-14.14,-14.14,0.0,20
6.9,906.8390051507344,906.8390051507344,100.0,-0.0,-2.36,3032,3032,3032,3032,-14.14,-14.14,0.0,20
7.0,905.4247915883612,905.4247915883612,100.0,-0.0,-2.36,3092,3092,3092,3092,-14.14,-14.14,0.0,20
7.1,904.0105780259881,904.0105780259881,100.0,-0.0,-2.36,3032,3032,3032,3032,-14.14,-14.14,0.0,20
7.2,902.596364463615,902.596364463615,100.0,-0.0,-2.36,3092,3092,3092,3092,-14.14,-14.14,0.0,20
7.3,901.1821509012419,901.1821509012419,100.0,-0.0,-2.36,3032,3032,3032,3032,-14.14,-14.14,0.0,20
7.4,899.7679373388688,899.7679373388688,100.0,-0.0,-2.36,3092,3092,3092,3092,-14.14,-14.14,0.0,20
7.5,898.3537237764957,898.3537237764957,100.0,-0.0,-2.36,3032,3032,3032,3032,-14.14,-14.14,0.0,20
7.6,896.9395102141226,896.9395102141226,100.0,-0.0,-2.36,3092,3092,3092,3092,-14.14,-14.14,0.0,20
7.7,895.5252966517495,895.5252966517495,100.0,-0.0,-2.36,3032,3032,3032,3032,-14.14,-14.14,0.0,20
7.8,894.1110830893764,894.1110830893764,100.0,-0.0,-2.36,3092,3092,3092,3092,-14.14,-14.14,0.0,20
7.9,892.6968695270033,892.6968695270033,100.0,-0.0,-2.36,3032,3032,3032,3032,-14.14,-14.14,0.0,20
8.0,891.2826559646302,891.2826559646302,100.0,-0.0,-2.36,3092,3092,3092,3092,-14.14,-14.14,0.0,20
8.1,889.8684424022571,889.8684424022571,100.0,-0.0,-2.36,3032,3032,3032,3032,-14.14,-14.14,0.0,20
8.2,888.454228839884,888.454228839884,100.0,-0.0,-2.36,3092,3092,3092,3092,-14.14,-14.14,0.0,20
8.3,887.0400152775109,887.0400152775109,100.0,-0.0,-2.36,3032,3032,3032,3032,-14.14,-14.14,0.0,20
8.4,885.6258017151378,885.6258017151378,100.0,-0.0,-2.36,3092,3092,3092,3092,-14.14,-14.14,0.0,20
8.5,884.2115881527646,884.2115881527646,100.0,-0.0,-2.36,3032,3032,3032,3032,-14.14,-14.14,0.0,20
8.6,882.7973745903915,882.7973745903915,100.0,-0.0,-2.36,3092,3092,3092,3092,-14.14,-14.14,0.0,20
8.7,881.3831610280184,881.3831610280184,100.0,-0.0,-2.36,3032,3032,3032,3032,-14.14,-14.14,0.0,20
8.8,879.9689474656453,879.9689474656453,100.0,-0.0,-2.36,3092,3092,3092,3092,-14.14,-14.14,0.0,20
8.9,878.5547339032722,878.5547339032722,100.0,-0.0,-2.36,3032,3032,3032,3032,-14.14,-14.14,0.0,20
9.0,877.1405203408991,877.1405203408991,100.0,-0.0,-2.36,3092,3092,3092,3092,-14.14,-14.14,0.0,20
9.1,875.726306778526,875.726306778526,100.0,-0.0,-2.36,3032,3032,3032,3032,-14.14,-14.14,0.0,20
9.2,874.3120932161529,874.3120932161529,100.0,-0.0,-2.36,3092,3092,3092,3092,-14.14,-14.14,0.0,20
9.3,872.8978796537798,872.8978796537798,100.0,-0.0,-2.36,3032,3032,3032,3032,-14.14,-14.14,0.0,20
9.4,871.4836660914067,871.4836660914067,100.0,-0.0,-2.36,3092,3092,3092,3092,-14.14,-14.14,0.0,20
9.5,870.0694525290336,870.0694525290336,100.0,-0.0,-2.36,3032,3032,3032,3032,-14.14,-14.14,0.0,20
9.6,868.6552389666605,868.6552389666605,100.0,-0.0,-2.36,3092,3092,3092,3092,-14.14,-14.14,0.0,20
9.7,867.2410254042874,867.2410254042874,100.0,-0.0,-2.36,3032,3032,3032,3032,-14.14,-14.14,0.0,20
9.8,865.8268118419143,865.8268118419143,100.0,-0.0,-2.36,3092,3092,3092,3092,-14.14,-14.14,0.0,20
9.9,864.4125982795412,864.4125982795412,100.0,-0.0,-2.36,3032,3032,3032,3032,-14.14,-14.14,0.0,20
10.0,862.998384717168,862.998384717168,100.0,-0.0,-2.36,3092,3092,3092,3092,-14.14,-14.14,0.0,20
10.1,861.584171154795,861.584171154795,100.0,-0.0,-2.36,3032,3032,3032,3032,-14.14,-14.14,0.0,20
10.2,860.1699575924218,860.1699575924218,100.0,-0.0,-2.36,3092,3092,3092,3092,-14.14,-14.14,0.0,20
10.3,858.7557440300487,858.7557440300487,100.0,-0.0,-2.36,3032,3032,3032,3032,-14.14,-14.14,0.0,20
10.4,857.3415304676756,857.3415304676756,100.0,-0.0,-2.36,3092,3092,3092,3092,-14.14,-14.14,0.0,20
10.5,855.9273169053025,855.9273169053025,100.0,-0.0,-2.36,3032,3032,3032,3032,-14.14,-14.14,0.0,20
10.6,854.5131033429294,854.5131033429294,100.0,-0.0,-2.36,3092,3092,3092,3092,-14.14,-14.14,0.0,20
10.7,853.0988897805563,853.0988897805563,100.0,-0.0,-2.36,3032,3032,3032,3032,-14.14,-14.14,0.0,20
10.8,851.6846762181832,851.6846762181832,100.0,-0.0,-2.36,3092,3092,3092,3092,-14.14,-14.14,0.0,20
10.9,850.2704626558101,850.2704626558101,100.0,-0.0,-2.36,3032,3032,3032,3032,-14.14,-14.14,0.0,20
11.0,848.856249093437,848.856249093437,100.0,-0.0,-2.36,3092,3092,3092,3092,-14.14,-14.14,0.0,20
11.1,847.4420355310639,847.4420355310639,100.0,-0.0,-2.36,3032,3032,3032,3032,-14.14,-14.14,0.0,20
11.2,846.0278219686908,846.0278219686908,100.0,-0.0,-2.36,3092,3092,3092,3092,-14.14,-14.14,0.0,20
11.3,844.6136084063177,844.6136084063177,100.0,-0.0,-2.36,3032,3032,3032,3032,-14.14,-14.14,0.0,20
11.4,843.1993948439446,843.1993948439446,100.0,-0.0,-2.36,3092,3092,3092,3092,-14.14,-14.14,0.0,20
11.5,841.7851812815715,841.7851812815715,100.0,-0.0,-2.36,3032,3032,3032,3032,-14.14,-14.14,0.0,20
11.6,840.3709677191983,840.3709677191983,100.0,-0.0,-2.36,3092,3092,3092,3092,-14.14,-14.14,0.0,20
11.7,838.9567541568252,838.9567541568252,100.0,-0.0,-2.36,3032,3032,3032,3032,-14.14,-14.14,0.0,20
11.8,837.5425405944521,837.5425405944521,100.0,-0.0,-2.36,3092,3092,3092,3092,-14.14,-14.14,0.0,20
11.9,836.128327032079,836.128327032079,100.0,-0.0,-2.36,3032,3032,3032,3032,-14.14,-14.14,0.0,20
12.0,834.7141134697059,834.7141134697059,100.0,-0.0,-2.36,3092,3092,3092,3092,-14.14,-14.14,0.0,20
12.1,833.2998999073328,833.2998999073328,100.0,-0.0,-2.36,3032,3032,3032,3032,-14.14,-14.14,0.0,20
12.2,831.8856863449597,831.8856863449597,100.0,-0.0,-2.36,3092,3092,3092,3092,-14.14,-14.14,0.0,20
12.3,830.4714727825866,830.4714727825866,100.0,-0.0,-2.36,3032,3032,3032,3032,-14.14,-14.14,0.0,20
12.4,829.0572592202135,829.0572592202135,100.0,-0.0,-2.36,3092,3092,3092,3092,-14.14,-14.14,0.0,20
12.5,827.6430456578404,827.6430456578404,100.0,-0.0,-2.36,3032,3032,3032,3032,-14.14,-14.14,0.0,20
12.6,826.2288320954673,826.2288320954673,100.0,-0.0,-2.36,3092,3092,3092,3092,-14.14,-14.14,0.0,20
12.7,824.8146185330942,824.8146185330942,100.0,-0.0,-2.36,3032,3032,3032,3032,-14.14,-14.14,0.0,20
12.8,823.4004049707211,823.4004049707211,100.0,-0.0,-2.36,3092,3092,3092,3092,-14.14,-14.14,0.0,20
12.9,821.986191408348,821.986191408348,100.0,-0.0,-2.36,3032,3032,3032,3032,-14.14,-14.14,0.0,20
13.0,820.5719778459749,820.5719778459749,100.0,-0.0,-2.36,3092,3092,3092,3092,-14.14,-14.14,0.0,20
13.1,819.1577642836018,819.1577642836018,100.0,-0.0,-2.36,3032,3032,3032,3032,-14.14,-14.14,0.0,20
13.2,817.7435507212286,817.7435507212286,100.0,-0.0,-2.36,3092,3092,3092,3092,-14.14,-14.14,0.0,20
13.3,816.3293371588555,816.3293371588555,100.0,-0.0,-2.36,3032,3032,3032,3032,-14.14,-14.14,0.0,20
13.4,814.9151235964824,814.9151235964824,100.0,-0.0,-2.36,3092,3092,3092,3092,-14.14,-14.14,0.0,20
13.5,813.5009100341093,813.5009100341093,100.0,-0.0,-2.36,3032,3032,3032,3032,-14.14,-14.14,0.0,20
13.6,812.0866964717362,812.0866964717362,100.0,-0.0,-2.36,3092,3092,3092,3092,-14.14,-14.14,0.0,20
13.7,810.6724829093631,810.6724829093631,100.0,-0.0,-2.36,3032,3032,3032,3032,-14.14,-14.14,0.0,20
13.8,809.25826934699,809.25826934699,100.0,-0.0,-2.36,3092,3092,3092,3092,-14.14,-14.14,0.0,20
13.9,807.8440557846169,807.8440557846169,100.0,-0.0,-2.36,3032,3032,3032,3032,-14.14,-14.14,0.0,20
14.0,806.4298422222438,806.4298422222438,100.0,-0.0,-2.36,3092,3092,3092,3092,-14.14,-14.14,0.0,20
14.1,805.0156286598707,805.0156286598707,100.0,-0.0,-2.36,3032,3032,3032,3032,-14.14,-14.14,0.0,20
14.2,803.6014150974976,803.6014150974976,100.0,-0.0,-2.36,3092,3092,3092,3092,-14.14,-14.14,0.0,20
14.3,802.1872015351245,802.1872015351245,100.0,-0.0,-2.36,3032,3032,3032,3032,-14.14,-14.14,0.0,20
14.4,800.7729879727514,800.7729879727514,100.0,-0.0,-2.36,3092,3092,3092,3092,-14.14,-14.14,0.0,20
14.5,799.3587744103783,799.3587744103783,100.0,-0.0,-2.36,3032,3032,3032,3032,-14.14,-14.14,0.0,20
14.6,797.9445608480052,797.9445608480052,100.0,-0.0,-2.36,3092,3092,3092,3092,-14.14,-14.14,0.0,20
14.7,796.530347285632,796.530347285632,100.0,-0.0,-2.36,3032,3032,3032,3032,-14.14,-14.14,0.0,20
14.8,795.1161337232589,795.1161337232589,100.0,-0.0,-2.36,3092,3092,3092,3092,-14.14,-14.14,0.0,20
14.9,793.7019201608858,793.7019201608858,100.0,-0.0,-2.36,3032,3032,3032,3032,-14.14,-14.14,0.0,20
15.0,792.2877065985127,792.2877065985127,100.0,-0.0,-2.36,3092,3092,3092,3092,-14.14,-14.14,0.0,20
15.1,790.8734930361396,790.8734930361396,100.0,-0.0,-2.36,3032,3032,3032,3032,-14.14,-14.14,0.0,20
15.2,789.4592794737665,789.4592794737665,100.0,-0.0,-2.36,3092,3092,3092,3092,-14.14,-14.14,0.0,20
15.3,788.0450659113934,788.0450659113934,100.0,-0.0,-2.36,3032,3032,3032,3032,-14.14,-14.14,0.0,20
15.4,786.6308523490203,786.6308523490203,100.0,-0.0,-2.36,3092,3092,3092,3092,-14.14,-14.14,0.0,20
15.5,785.2166387866472,785.2166387866472,100.0,-0.0,-2.36,3032,3032,3032,3032,-14.14,-14.14,0.0,20
15.6,783.8024252242741,783.8024252242741,100.0,-0.0,-2.36,3092,3092,3092,3092,-14.14,-14.14,0.0,20
15.7,782.388211661901,782.388211661901,100.0,-0.0,-2.36,3032,3032,3032,3032,-14.14,-14.14,0.0,20
15.8,780.9739980995279,780.9739980995279,100.0,-0.0,-2.36,3092,3092,3092,3092,-14.14,-14.14,0.0,20
15.9,779.5597845371548,779.5597845371548,100.0,-0.0,-2.36,3032,3032,3032,3032,-14.14,-14.14,0.0,20
16.0,778.1455709747817,778.1455709747817,100.0,-0.0,-2.36,3092,3092,3092,3092,-14.14,-14.14,0.0,20
16.1,776.7313574124086,776.7313574124086,100.0,-0.0,-2.36,3032,3032,3032,3032,-14.14,-14.14,0.0,20
16.2,775.3171438500354,775.3171438500354,100.0,-0.0,-2.36,3092,3092,3092,3092,-14.14,-14.14,0.0,20
16.3,773.9029302876623,773.9029302876623,100.0,-0.0,-2.36,3032,3032,3032,3032,-14.14,-14.14,0.0,20
16.4,772.4887167252892,772.4887167252892,100.0,-0.0,-2.36,3092,3092,3092,3092,-14.14,-14.14,0.0,20
16.5,771.0745031629161,771.0745031629161,100.0,-0.0,-2.36,3032,3032,3032,3032,-14.14,-14.14,0.0,20
16.6,769.660289600543,769.660289600543,100.0,-0.0,-2.36,3092,3092,3092,3092,-14.14,-14.14,0.0,20
16.7,768.2460760381699,768.2460760381699,100.0,-0.0,-2.36,3032,3032,3032,3032,-14.14,-14.14,0.0,20
16.8,766.8318624757968,766.8318624757968,100.0,-0.0,-2.36,3092,3092,3092,3092,-14.14,-14.14,0.0,20
16.9,765.4176489134237,765.4176489134237,100.0,-0.0,-2.36,3032,3032,3032,3032,-14.14,-14.14,0.0,20
17.0,764.0034353510506,764.0034353510506,100.0,-0.0,-2.36,3092,3092,3092,3092,-14.14,-14.14,0.0,20
17.1,762.5892217886775,762.5892217886775,100.0,-0.0,-2.36,3032,3032,3032,3032,-14.14,-14.14,0.0,20
17.2,761.1750082263044,761.1750082263044,100.0,-0.0,-2.36,3092,3092,3092,3092,-14.14,-14.14,0.0,20
17.3,759.7607946639313,759.7607946639313,100.0,-0.0,-2.36,3032,3032,3032,3032,-14.14,-14.14,0.0,20
17.4,758.3465811015582,758.3465811015582,100.0,-0.0,-2.36,3092,3092,3092,3092,-14.14,-14.14,0.0,20
17.5,756.9323675391851,756.9323675391851,100.0,-0.0,-2.36,3032,3032,3032,3032,-14.14,-14.14,0.0,20
17.6,755.518153976812,755.518153976812,100.0,-0.0,-2.36,3092,3092,3092,3092,-14.14,-14.14,0.0,20
17.7,754.1039404144389,754.1039404144389,100.0,-0.0,-2.36,3032,3032,3032,3032,-14.14,-14.14,0.0,20
17.8,752.6897268520657,752.6897268520657,100.0,-0.0,-2.36,3092,3092,3092,3092,-14.14,-14.14,0.0,20
17.9,751.2755132896926,751.2755132896926,100.0,-0.0,-2.36,3032,3032,3032,3032,-14.14,-14.14,0.0,20
18.0,749.8612997273195,749.8612997273195,100.0,-0.0,-2.36,3092,3092,3092,3092,-14.14,-14.14,0.0,20
18.1,748.4470861649464,748.4470861649464,100.0,-0.0,-2.36,3032,3032,3032,3032,-14.14,-14.14,0.0,20
18.2,747.0328726025733,747.0328726025733,100.0,-0.0,-2.36,3092,3092,3092,3092,-14.14,-14.14,0.0,20
18.3,745.6186590402002,745.6186590402002,100.0,-0.0,-2.36,3032,3032,3032,3032,-14.14,-14.14,0.0,20
18.4,744.2044454778271,744.2044454778271,100.0,-0.0,-2.36,3092,3092,3092,3092,-14.14,-14.14,0.0,20
18.5,742.790231915454,742.790231915454,100.0,-0.0,-2.36,3032,3032,3032,3032,-14.14,-14.14,0.0,20
18.6,741.3760183530809,741.3760183530809,100.0,-0.0,-2.36,3092,3092,3092,3092,-14.14,-14.14,0.0,20
18.7,739.9618047907078,739.9618047907078,100.0,-0.0,-2.36,3032,3032,3032,3032,-14.14,-14.14,0.0,20
18.8,738.5475912283347,738.5475912283347,100.0,-0.0,-2.36,3092,3092,3092,3092,-14.14,-14.14,0.0,20
18.9,737.1333776659616,737.1333776659616,100.0,-0.0,-2.36,3032,3032,3032,3032,-14.14,-14.14,0.0,20
19.0,735.7191641035885,735.7191641035885,100.0,-0.0,-2.36,3092,3092,3092,3092,-14.14,-14.14,0.0,20
19.1,734.3049505412154,734.3049505412154,100.0,-0.0,-2.36,3032,3032,3032,3032,-14.14,-14.14,0.0,20
19.2,732.8907369788423,732.8907369788423,100.0,-0.0,-2.36,3092,3092,3092,3092,-14.14,-14.14,0.0,20
19.3,731.4765234164691,731.4765234164691,100.0,-0.0,-2.36,3032,3032,3032,3032,-14.14,-14.14,0.0,20
19.4,730.062309854096,730.062309854096,100.0,-0.0,-2.36,3092,3092,3092,3092,-14.14,-14.14,0.0,20
19.5,728.6480962917229,728.6480962917229,100.0,-0.0,-2.36,3032,3032,3032,3032,-14.14,-14.14,0.0,20
19.6,727.2338827293498,727.2338827293498,100.0,-0.0,-2.36,3092,3092,3092,3092,-14.14,-14.14,0.0,20
19.7,725.8196691669767,725.8196691669767,100.0,-0.0,-2.36,3032,3032,3032,3032,-14.14,-14.14,0.0,20
19.8,724.4054556046036,724.4054556046036,100.0,-0.0,-2.36,3092,3092,3092,3092,-14.14,-14.14,0.0,20
19.9,722.9912420422305,722.9912420422305,100.0,-0.0,-2.36,3032,3032,3032,3032,-14.14,-14.14,0.0,20
20.0,721.5770284798574,721.5770284798574,100.0,-0.0,-2.36,3092,3092,3092,3092,-14.14,-14.14,0.0,20
20.1,720.1628149174843,720.1628149174843,100.0,-0.0,-2.36,3032,3032,3032,3032,-14.14,-14.14,0.0,20
20.2,718.7486013551112,718.7486013551112,100.0,-0.0,-2.36,3092,3092,3092,3092,-14.14,-14.14,0.0,20
20.3,717.3343877927381,717.3343877927381,100.0,-0.0,-2.36,3032,3032,3032,3032,-14.14,-14.14,0.0,20
