Time(s),X,Y,Z,Pitch,Yaw,FL,FR,RL,RR,Vx,Vy,Vz,Hor_Speed
0.1,0.02975781741670754,0.4704507184520112,500.4051453356718,-0.09,1.51,2160,2160,2160,2160,0.3,4.7,4.05,15.71
0.2,0.06419148988065147,1.014823503685532,500.86500491901586,-0.09,1.51,2220,2220,2220,2220,0.34,5.44,4.6,15.71
0.3,0.10403573594046064,1.6447337528992962,501.3869678241118,-0.09,1.51,2280,2280,2280,2280,0.4,6.3,5.22,15.71
0.4,0.15014072069737217,2.3736219942435732,501.9794210080056,-0.09,1.51,2340,2340,2340,2340,0.46,7.29,5.92,15.71
0.5,0.20349019595772108,3.217040670210632,502.6518840732522,-0.08,1.51,2400,2400,2400,2400,0.53,8.43,6.72,15.71
0.6,0.26522249075319687,4.192985983387978,503.41516222993084,-0.08,1.51,2460,2460,2460,2460,0.62,9.76,7.63,15.71
0.7,0.33665480010803506,5.322281885237359,504.28151991494235,-0.08,1.51,2520,2520,2520,2520,0.71,11.29,8.66,15.71
0.8,0.4193112903077037,6.629024401149271,505.2648778583225,-0.08,1.51,2580,2580,2580,2580,0.83,13.07,9.83,15.71
0.9,0.5149556203571448,8.141095772430615,506.38103676305474,-0.08,1.51,2640,2640,2640,2640,0.96,15.12,11.16,15.71
1.0,0.6141483450795033,9.709264833937318,507.64793119249396,-0.08,1.51,2700,2700,2700,2700,0.99,15.68,12.67,15.71
1.1,0.7133410698018617,11.277433895444021,508.99841564473337,-0.08,1.51,2760,2760,2760,2760,0.99,15.68,13.5,15.71
1.2,0.8125337945242201,12.845602956950724,510.3489000969728,-0.08,1.51,2820,2820,2820,2820,0.99,15.68,13.5,15.71
1.3,0.9117265192465787,14.413772018457427,511.6993845492122,-0.08,1.51,2880,2880,2880,2880,0.99,15.68,13.5,15.71
1.4,1.0109192439689372,15.98194107996413,513.0498690014516,-0.08,1.51,2940,2940,2940,2940,0.99,15.68,13.5,15.71
1.5,1.1101119686912957,17.550110141470835,514.4003534536911,-0.07,1.51,3000,3000,3000,3000,0.99,15.68,13.5,15.71
1.6,1.2093046934136542,19.11827920297754,515.7508379059306,-0.07,1.51,3060,3060,3060,3060,0.99,15.68,13.5,15.71
1.7,1.3084974181360127,20.686448264484245,517.10132235817,-0.07,1.51,3120,3120,3120,3120,0.99,15.68,13.5,15.71
1.8,1.4076901428583712,22.25461732599095,518.4518068104095,-0.07,1.51,3180,3180,3180,3180,0.99,15.68,13.5,15.71
1.9,1.5068828675807298,23.822786387497654,519.802291262649,-0.07,1.51,3240,3240,3240,3240,0.99,15.68,13.5,15.71
2.0,1.6060755923030883,25.39095544900436,521.1527757148884,-0.07,1.51,3300,3300,3300,3300,0.99,15.68,13.5,15.71
2.1,1.7052683170254468,26.959124510511064,522.5032601671279,-0.07,1.51,3360,3360,3360,3360,0.99,15.68,13.5,15.71
2.2,1.8044610417478053,28.52729357201777,523.8537446193674,-0.06,1.51,3420,3420,3420,3420,0.99,15.68,13.5,15.71
2.3,1.9036537664701638,30.095462633524473,525.2042290716068,-0.06,1.51,3480,3480,3480,3480,0.99,15.68,13.5,15.71
2.4,2.002846491192522,31.663631695031178,526.5547135238463,-0.06,1.51,3540,3540,3540,3540,0.99,15.68,13.5,15.71
2.5,2.1020392159148806,33.23180075653788,527.9051979760858,-0.06,1.51,3600,3600,3600,3600,0.99,15.68,13.5,15.71
2.6,2.201231940637239,34.79996981804458,529.2556824283253,-0.06,1.51,3660,3660,3660,3660,0.99,15.68,13.5,15.71
2.7,2.3004246653595977,36.36813887955128,530.6061668805647,-0.06,1.51,3720,3720,3720,3720,0.99,15.68,13.5,15.71
2.8,2.399617390081956,37.93630794105798,531.9566513328042,-0.06,1.51,3780,3780,3780,3780,0.99,15.68,13.5,15.71
2.9,2.4988101148043147,39.504477002564684,533.3071357850437,-0.05,1.51,3840,3840,3840,3840,0.99,15.68,13.5,15.71
3.0,2.598002839526673,41.072646064071385,534.6576202372831,-0.05,1.51,3900,3900,3900,3900,0.99,15.68,13.5,15.71
3.1,2.6971955642490317,42.64081512557809,536.0081046895226,-0.05,1.51,3960,3960,3960,3960,0.99,15.68,13.5,15.71
3.2,2.7963882889713902,44.20898418708479,537.3585891417621,-0.05,1.51,4020,4020,4020,4020,0.99,15.68,13.5,15.71
3.3,2.8955810136937488,45.77715324859149,538.7090735940016,-0.05,1.51,4080,4080,4080,4080,0.99,15.68,13.5,15.71
3.4,2.9947737384161073,47.34532231009819,540.059558046241,-0.05,1.51,4140,4140,4140,4140,0.99,15.68,13.5,15.71
3.5,3.093966463138466,48.91349137160489,541.4100424984805,-0.05,1.51,4200,4200,4200,4200,0.99,15.68,13.5,15.71
3.6,3.1931591878608243,50.48166043311159,542.76052695072,-0.04,1.51,4260,4260,4260,4260,0.99,15.68,13.5,15.71
3.7,3.292351912583183,52.049829494618294,544.1110114029594,-0.04,1.51,4320,4320,4320,4320,0.99,15.68,13.5,15.71
3.8,3.3915446373055413,53.617998556124995,545.4614958551989,-0.04,1.51,4380,4380,4380,4380,0.99,15.68,13.5,15.71
3.9,3.4907373620279,55.186167617631696,546.8119803074384,-0.04,1.51,4440,4440,4440,4440,0.99,15.68,13.5,15.71
4.0,3.5899300867502584,56.7543366791384,548.1624647596778,-0.04,1.51,4500,4500,4500,4500,0.99,15.68,13.5,15.71
4.1,3.689122811472617,58.3225057406451,549.5129492119173,-0.04,1.51,4560,4560,4560,4560,0.99,15.68,13.5,15.71
4.2,3.7883155361949754,59.8906748021518,550.8634336641568,-0.03,1.51,4620,4620,4620,4620,0.99,15.68,13.5,15.71
4.3,3.887508260917334,61.4588438636585,552.2139181163963,-0.03,1.51,4680,4680,4680,4680,0.99,15.68,13.5,15.71
4.4,3.9867009856396924,63.0270129251652,553.5644025686357,-0.03,1.51,4740,4740,4740,4740,0.99,15.68,13.5,15.71
4.5,4.0858937103620505,64.5951819866719,554.9148870208752,-0.03,1.51,4800,4800,4800,4800,0.99,15.68,13.5,15.71
4.6,4.185086435084409,66.16335104817861,556.2653714731147,-0.03,1.51,4860,4860,4860,4860,0.99,15.68,13.5,15.71
4.7,4.284279159806767,67.73152010968532,557.6158559253541,-0.03,1.51,4920,4920,4920,4920,0.99,15.68,13.5,15.71
4.8,4.383471884529125,69.29968917119203,558.9663403775936,-0.03,1.51,4980,4980,4980,4980,0.99,15.68,13.5,15.71
4.9,4.482664609251483,70.86785823269874,560.3168248298331,-0.02,1.51,5000,5000,5000,5000,0.99,15.68,13.5,15.71
5.0,4.581857333973841,72.43602729420545,561.6673092820726,-0.02,1.51,5000,5000,5000,5000,0.99,15.68,13.5,15.71
5.1,4.681050058696199,74.00419635571215,563.017793734312,-0.02,1.51,5000,5000,5000,5000,0.99,15.68,13.5,15.71
5.2,4.780242783418557,75.57236541721886,564.3682781865515,-0.02,1.51,5000,5000,5000,5000,0.99,15.68,13.5,15.71
5.3,4.879435508140915,77.14053447872557,565.718762638791,-0.02,1.51,5000,5000,5000,5000,0.99,15.68,13.5,15.71
5.4,4.978628232863273,78.70870354023228,567.0692470910304,-0.02,1.51,5000,5000,5000,5000,0.99,15.68,13.5,15.71
5.5,5.077820957585631,80.27687260173899,568.4197315432699,-0.01,1.51,5000,5000,5000,5000,0.99,15.68,13.5,15.71
5.6,5.177013682307989,81.8450416632457,569.6716996905982,-0.01,1.51,5000,5000,5000,5000,0.99,15.68,12.52,15.71
5.7,5.276206407030347,83.4132107247524,570.8109502700821,-0.01,1.51,5000,5000,5000,5000,0.99,15.68,11.39,15.71
5.8,5.3753991317527055,84.98137978625911,571.8476315032461,-0.01,1.51,5000,5000,5000,5000,0.99,15.68,10.37,15.71
5.9,5.4745918564750635,86.54954884776582,572.7909779439224,-0.01,1.51,5000,5000,5000,5000,0.99,15.68,9.43,15.71
6.0,5.573784581197422,88.11771790927253,573.6493927378514,-0.01,1.51,5000,5000,5000,5000,0.99,15.68,8.58,15.71
6.1,5.67297730591978,89.68588697077924,574.4305224762621,-0.01,1.51,5000,5000,5000,5000,0.99,15.68,7.81,15.71
6.2,5.772170030642138,91.25405603228594,575.1413253102126,-0.01,1.51,5000,5000,5000,5000,0.99,15.68,7.11,15.71
6.3,5.871362755364496,92.82222509379265,575.7881329324391,-0.01,1.51,4940,4940,4940,4940,0.99,15.68,6.47,15.71
6.4,5.970555480086854,94.39039415529936,576.3767069788386,-0.0,1.51,4880,4880,4880,4880,0.99,15.68,5.89,15.71
6.5,6.069748204809212,95.95856321680607,576.9122903519944,-0.0,1.51,4820,4820,4820,4820,0.99,15.68,5.36,15.71
6.6,6.16894092953157,97.52673227831278,577.3996539239287,-0.0,1.51,4760,4760,4760,4760,0.99,15.68,4.87,15.71
6.7,6.268133654253928,99.09490133981949,577.8431390340971,-0.0,1.51,4700,4700,4700,4700,0.99,15.68,4.43,15.71
6.8,6.367326378976286,100.6630704013262,578.2466961611935,-0.0,1.51,4640,4640,4640,4640,0.99,15.68,4.04,15.71
6.9,6.466519103698644,102.2312394628329,578.613920113241,-0.0,1.51,4580,4580,4580,4580,0.99,15.68,3.67,15.71
7.0,6.565711828421002,103.79940852433961,578.9480820494397,-0.0,1.51,4520,4520,4520,4520,0.99,15.68,3.34,15.71
7.1,6.66490455314336,105.36757758584632,579.252158619014,-0.0,1.51,4460,4460,4460,4460,0.99,15.68,3.04,15.71
7.2,6.7640972778657185,106.93574664735303,579.3254986024783,-0.0,1.51,4400,4400,4400,4400,0.99,15.68,0.0,15.71
7.3,6.8632900025880765,108.50391570885974,579.3254986024783,-0.0,1.51,4340,4340,4340,4340,0.99,15.68,0.0,15.71
7.4,6.962482727310435,110.07208477036644,579.3254986024783,-0.0,1.51,4280,4280,4280,4280,0.99,15.68,0.0,15.71
7.5,7.061675452032793,111.64025383187315,579.3254986024783,-0.0,1.51,4220,4220,4220,4220,0.99,15.68,0.0,15.71
7.6,7.160868176755151,113.20842289337986,579.3254986024783,-0.0,1.51,4160,4160,4160,4160,0.99,15.68,0.0,15.71
7.7,7.260060901477509,114.77659195488657,579.3254986024783,-0.0,1.51,4100,4100,4100,4100,0.99,15.68,0.0,15.71
7.8,7.359253626199867,116.34476101639328,579.3254986024783,-0.0,1.51,4040,4040,4040,4040,0.99,15.68,0.0,15.71
7.9,7.458446350922225,117.91293007789999,579.3254986024783,-0.0,1.51,3980,3980,3980,3980,0.99,15.68,0.0,15.71
8.0,7.557639075644583,119.4810991394067,579.3254986024783,-0.0,1.51,3920,3920,3920,3920,0.99,15.68,0.0,15.71
8.1,7.656831800366941,121.0492682009134,579.3254986024783,-0.0,1.51,3860,3860,3860,3860,0.99,15.68,0.0,15.71
8.2,7.756024525089299,122.61743726242011,579.3254986024783,-0.0,1.51,3800,3800,3800,3800,0.99,15.68,0.0,15.71
8.3,7.855217249811657,124.18560632392682,579.3254986024783,-0.0,1.51,3740,3740,3740,3740,0.99,15.68,0.0,15.71
8.4,7.954409974534015,125.75377538543353,579.3254986024783,-0.0,1.51,3680,3680,3680,3680,0.99,15.68,0.0,15.71
8.5,8.053602699256373,127.32194444694024,579.3254986024783,-0.0,1.51,3620,3620,3620,3620,0.99,15.68,0.0,15.71
8.6,8.152795423978732,128.89011350844694,579.3254986024783,-0.0,1.51,3560,3560,3560,3560,0.99,15.68,0.0,15.71
8.7,8.251988148701091,130.45828256995364,579.3254986024783,-0.0,1.51,3500,3500,3500,3500,0.99,15.68,0.0,15.71
8.8,8.35118087342345,132.02645163146033,579.3254986024783,-0.0,1.51,3440,3440,3440,3440,0.99,15.68,0.0,15.71
8.9,8.45037359814581,133.59462069296703,579.3254986024783,-0.0,1.51,3380,3380,3380,3380,0.99,15.68,0.0,15.71
9.0,8.549566322868168,135.16278975447372,579.3254986024783,-0.0,1.51,3320,3320,3320,3320,0.99,15.68,0.0,15.71
9.1,8.648759047590527,136.73095881598042,579.3254986024783,-0.0,1.51,3260,3260,3260,3260,0.99,15.68,0.0,15.71
9.2,8.747951772312886,138.2991278774871,579.3254986024783,-0.0,1.51,3200,3200,3200,3200,0.99,15.68,0.0,15.71
9.3,8.847144497035245,139.8672969389938,579.3254986024783,-0.0,1.51,3140,3140,3140,3140,0.99,15.68,0.0,15.71
9.4,8.946337221757604,141.4354660005005,579.3254986024783,-0.0,1.51,3080,3080,3080,3080,0.99,15.68,0.0,15.71
9.5,9.045529946479963,143.0036350620072,579.3254986024783,-0.0,1.51,3020,3020,3020,3020,0.99,15.68,0.0,15.71
9.6,9.144722671202322,144.57180412351389,579.3254986024783,-0.0,1.51,2960,2960,2960,2960,0.99,15.68,0.0,15.71
9.7,9.243915395924681,146.13997318502058,579.3254986024783,-0.0,1.51,3020,3020,3020,3020,0.99,15.68,0.0,15.71
9.8,9.34310812064704,147.70814224652727,579.3254986024783,-0.0,1.51,2960,2960,2960,2960,0.99,15.68,0.0,15.71
9.9,9.442300845369399,149.27631130803397,579.3254986024783,-0.0,1.51,3020,3020,3020,3020,0.99,15.68,0.0,15.71
10.0,9.541493570091758,150.84448036954066,579.3254986024783,-0.0,1.51,2960,2960,2960,2960,0.99,15.68,0.0,15.71
10.1,9.640686294814117,152.41264943104736,579.3254986024783,-0.0,1.51,3020,3020,3020,3020,0.99,15.68,0.0,15.71
10.2,9.739879019536476,153.98081849255405,579.3254986024783,-0.0,1.51,2960,2960,2960,2960,0.99,15.68,0.0,15.71
10.3,9.839071744258835,155.54898755406074,579.3254986024783,-0.0,1.51,3020,3020,3020,3020,0.99,15.68,0.0,15.71
10.4,9.938264468981194,157.11715661556744,579.3254986024783,-0.0,1.51,2960,2960,2960,2960,0.99,15.68,0.0,15.71
10.5,10.037457193703553,158.68532567707413,579.3254986024783,-0.0,1.51,3020,3020,3020,3020,0.99,15.68,0.0,15.71
10.6,10.136649918425912,160.25349473858083,579.3254986024783,-0.0,1.51,2960,2960,2960,2960,0.99,15.68,0.0,15.71
10.7,10.23584264314827,161.82166380008752,579.3254986024783,-0.0,1.51,3020,3020,3020,3020,0.99,15.68,0.0,15.71
10.8,10.33503536787063,163.38983286159421,579.3254986024783,-0.0,1.51,2960,2960,2960,2960,0.99,15.68,0.0,15.71
10.9,10.434228092592988,164.9580019231009,579.3254986024783,-0.0,1.51,3020,3020,3020,3020,0.99,15.68,0.0,15.71
11.0,10.533420817315347,166.5261709846076,579.3254986024783,-0.0,1.51,2960,2960,2960,2960,0.99,15.68,0.0,15.71
11.1,10.632613542037706,168.0943400461143,579.3254986024783,-0.0,1.51,3020,3020,3020,3020,0.99,15.68,0.0,15.71
11.2,10.731806266760065,169.662509107621,579.3254986024783,-0.0,1.51,2960,2960,2960,2960,0.99,15.68,0.0,15.71
11.3,10.830998991482424,171.23067816912769,579.3254986024783,-0.0,1.51,3020,3020,3020,3020,0.99,15.68,0.0,15.71
11.4,10.930191716204783,172.79884723063438,579.3254986024783,-0.0,1.51,2960,2960,2960,2960,0.99,15.68,0.0,15.71
11.5,11.029384440927142,174.36701629214107,579.3254986024783,-0.0,1.51,3020,3020,3020,3020,0.99,15.68,0.0,15.71
11.6,11.128577165649501,175.93518535364777,579.3254986024783,-0.0,1.51,2960,2960,2960,2960,0.99,15.68,0.0,15.71
11.7,11.22776989037186,177.50335441515446,579.3254986024783,-0.0,1.51,3020,3020,3020,3020,0.99,15.68,0.0,15.71
11.8,11.326962615094219,179.07152347666116,579.3254986024783,-0.0,1.51,2960,2960,2960,2960,0.99,15.68,0.0,15.71
11.9,11.426155339816578,180.63969253816785,579.3254986024783,-0.0,1.51,3020,3020,3020,3020,0.99,15.68,0.0,15.71
12.0,11.525348064538937,182.20786159967454,579.3254986024783,-0.0,1.51,2960,2960,2960,2960,0.99,15.68,0.0,15.71
12.1,11.624540789261296,183.77603066118124,579.3254986024783,-0.0,1.51,3020,3020,3020,3020,0.99,15.68,0.0,15.71
12.2,11.723733513983655,185.34419972268793,579.3254986024783,-0.0,1.51,2960,2960,2960,2960,0.99,15.68,0.0,15.71
12.3,11.822926238706014,186.91236878419463,579.3254986024783,-0.0,1.51,3020,3020,3020,3020,0.99,15.68,0.0,15.71
12.4,11.922118963428373,188.48053784570132,579.3254986024783,-0.0,1.51,2960,2960,2960,2960,0.99,15.68,0.0,15.71
12.5,12.021311688150732,190.04870690720801,579.3254986024783,-0.0,1.51,3020,3020,3020,3020,0.99,15.68,0.0,15.71
12.6,12.12050441287309,191.6168759687147,579.3254986024783,-0.0,1.51,2960,2960,2960,2960,0.99,15.68,0.0,15.71
12.7,12.21969713759545,193.1850450302214,579.3254986024783,-0.0,1.51,3020,3020,3020,3020,0.99,15.68,0.0,15.71
12.8,12.318889862317809,194.7532140917281,579.3254986024783,-0.0,1.51,2960,2960,2960,2960,0.99,15.68,0.0,15.71
12.9,12.418082587040168,196.3213831532348,579.3254986024783,-0.0,1.51,3020,3020,3020,3020,0.99,15.68,0.0,15.71
13.0,12.517275311762527,197.88955221474149,579.3254986024783,-0.0,1.51,2960,2960,2960,2960,0.99,15.68,0.0,15.71
13.1,12.616468036484886,199.45772127624818,579.3254986024783,-0.0,1.51,3020,3020,3020,3020,0.99,15.68,0.0,15.71
13.2,12.715660761207245,201.02589033775487,579.3254986024783,-0.0,1.51,2960,2960,2960,2960,0.99,15.68,0.0,15.71
13.3,12.814853485929603,202.59405939926157,579.3254986024783,-0.0,1.51,3020,3020,3020,3020,0.99,15.68,0.0,15.71
13.4,12.914046210651962,204.16222846076826,579.3254986024783,-0.0,1.51,2960,2960,2960,2960,0.99,15.68,0.0,15.71
13.5,13.013238935374321,205.73039752227496,579.3254986024783,-0.0,1.51,3020,3020,3020,3020,0.99,15.68,0.0,15.71
13.6,13.11243166009668,207.29856658378165,579.3254986024783,-0.0,1.51,2960,2960,2960,2960,0.99,15.68,0.0,15.71
13.7,13.21162438481904,208.86673564528834,579.3254986024783,-0.0,1.51,3020,3020,3020,3020,0.99,15.68,0.0,15.71
13.8,13.310817109541398,210.43490470679504,579.3254986024783,-0.0,1.51,2960,2960,2960,2960,0.99,15.68,0.0,15.71
13.9,13.410009834263757,212.00307376830173,579.3254986024783,-0.0,1.51,3020,3020,3020,3020,0.99,15.68,0.0,15.71
14.0,13.509202558986116,213.57124282980843,579.3254986024783,-0.0,1.51,2960,2960,2960,2960,0.99,15.68,0.0,15.71
14.1,13.608395283708475,215.13941189131512,579.3254986024783,-0.0,1.51,3020,3020,3020,3020,0.99,15.68,0.0,15.71
14.2,13.707588008430834,216.70758095282181,579.3254986024783,-0.0,1.51,2960,2960,2960,2960,0.99,15.68,0.0,15.71
14.3,13.806780733153193,218.2757500143285,579.3254986024783,-0.0,1.51,3020,3020,3020,3020,0.99,15.68,0.0,15.71
14.4,13.905973457875552,219.8439190758352,579.3254986024783,-0.0,1.51,2960,2960,2960,2960,0.99,15.68,0.0,15.71
14.5,14.005166182597911,221.4120881373419,579.3254986024783,-0.0,1.51,3020,3020,3020,3020,0.99,15.68,0.0,15.71
14.6,14.10435890732027,222.9802571988486,579.3254986024783,-0.0,1.51,2960,2960,2960,2960,0.99,15.68,0.0,15.71
14.7,14.203551632042629,224.54842626035528,579.3254986024783,-0.0,1.51,3020,3020,3020,3020,0.99,15.68,0.0,15.71
14.8,14.302744356764988,226.11659532186198,579.3254986024783,-0.0,1.51,2960,2960,2960,2960,0.99,15.68,0.0,15.71
14.9,14.401937081487347,227.68476438336867,579.3254986024783,-0.0,1.51,3020,3020,3020,3020,0.99,15.68,0.0,15.71
15.0,14.501129806209706,229.25293344487537,579.3254986024783,-0.0,1.51,2960,2960,2960,2960,0.99,15.68,0.0,15.71
15.1,14.600322530932065,230.82110250638206,579.3254986024783,-0.0,1.51,3020,3020,3020,3020,0.99,15.68,0.0,15.71
15.2,14.699515255654424,232.38927156788876,579.3254986024783,-0.0,1.51,2960,2960,2960,2960,0.99,15.68,0.0,15.71
15.3,14.798707980376783,233.95744062939545,579.3254986024783,-0.0,1.51,3020,3020,3020,3020,0.99,15.68,0.0,15.71
15.4,14.897900705099142,235.52560969090214,579.3254986024783,-0.0,1.51,2960,2960,2960,2960,0.99,15.68,0.0,15.71
15.5,14.9970934298215,237.09377875240884,579.3254986024783,-0.0,1.51,3020,3020,3020,3020,0.99,15.68,0.0,15.71
15.6,15.09628615454386,238.66194781391553,579.3254986024783,-0.0,1.51,2960,2960,2960,2960,0.99,15.68,0.0,15.71
15.7,15.195478879266219,240.23011687542223,579.3254986024783,-0.0,1.51,3020,3020,3020,3020,0.99,15.68,0.0,15.71
15.8,15.294671603988578,241.79828593692892,579.3254986024783,-0.0,1.51,2960,2960,2960,2960,0.99,15.68,0.0,15.71
15.9,15.393864328710936,243.36645499843561,579.3254986024783,-0.0,1.51,3020,3020,3020,3020,0.99,15.68,0.0,15.71
16.0,15.493057053433295,244.9346240599423,579.3254986024783,-0.0,1.51,2960,2960,2960,2960,0.99,15.68,0.0,15.71
16.1,15.592249778155654,246.502793121449,579.3254986024783,-0.0,1.51,3020,3020,3020,3020,0.99,15.68,0.0,15.71
16.2,15.691442502878013,248.0709621829557,579.3254986024783,-0.0,1.51,2960,2960,2960,2960,0.99,15.68,0.0,15.71
16.3,15.790635227600372,249.6391312444624,579.3254986024783,-0.0,1.51,3020,3020,3020,3020,0.99,15.68,0.0,15.71
16.4,15.889827952322731,251.20730030596908,579.3254986024783,-0.0,1.51,2960,2960,2960,2960,0.99,15.68,0.0,15.71
16.5,15.98902067704509,252.77546936747578,579.3254986024783,-0.0,1.51,3020,3020,3020,3020,0.99,15.68,0.0,15.71
16.6,16.088213401767447,254.34363842898247,579.3254986024783,-0.0,1.51,2960,2960,2960,2960,0.99,15.68,0.0,15.71
16.7,16.187406126489805,255.91180749048917,579.3254986024783,-0.0,1.51,3020,3020,3020,3020,0.99,15.68,0.0,15.71
16.8,16.28659885121216,257.4799765519959,579.3254986024783,-0.0,1.51,2960,2960,2960,2960,0.99,15.68,0.0,15.71
16.9,16.38579157593452,259.0481456135026,579.3254986024783,-0.0,1.51,3020,3020,3020,3020,0.99,15.68,0.0,15.71
17.0,16.484984300656876,260.6163146750093,579.3254986024783,-0.0,1.51,2960,2960,2960,2960,0.99,15.68,0.0,15.71
17.1,16.584177025379233,262.184483736516,579.3254986024783,-0.0,1.51,3020,3020,3020,3020,0.99,15.68,0.0,15.71
17.2,16.68336975010159,263.75265279802267,579.3254986024783,-0.0,1.51,2960,2960,2960,2960,0.99,15.68,0.0,15.71
17.3,16.782562474823948,265.32082185952936,579.3254986024783,-0.0,1.51,3020,3020,3020,3020,0.99,15.68,0.0,15.71
17.4,16.881755199546305,266.88899092103605,579.3254986024783,-0.0,1.51,2960,2960,2960,2960,0.99,15.68,0.0,15.71
17.5,16.980947924268662,268.45715998254275,579.3254986024783,-0.0,1.51,3020,3020,3020,3020,0.99,15.68,0.0,15.71
17.6,17.08014064899102,270.02532904404944,579.3254986024783,-0.0,1.51,2960,2960,2960,2960,0.99,15.68,0.0,15.71
17.7,17.179333373713376,271.59349810555614,579.3254986024783,-0.0,1.51,3020,3020,3020,3020,0.99,15.68,0.0,15.71
17.8,17.278526098435734,273.16166716706283,579.3254986024783,-0.0,1.51,2960,2960,2960,2960,0.99,15.68,0.0,15.71
17.9,17.37771882315809,274.7298362285695,579.3254986024783,-0.0,1.51,3020,3020,3020,3020,0.99,15.68,0.0,15.71
