Time(s),X,Y,Z,Pitch,Yaw,FL,FR,RL,RR,Vx,Vy,Vz,Hor_Speed
0.1,0.2505074899182757,999.6897971082288,100.19381767170916,-0.17,-0.89,2660,2660,2660,2660,2.505074899182757,-3.102028917711414,1.938176717091533,13.29
0.2,0.5343093254730753,999.338365899095,100.40015710670723,-0.17,-0.89,2720,2720,2720,2720,2.838018355547996,-3.5143120913381565,2.063394349980724,13.29
0.3,0.8558305777539921,998.9402268164833,100.619827284663,-0.17,-0.89,2780,2780,2780,2780,3.2152125228091673,-3.981390826116884,2.196701779557752,13.29
0.4,1.2200844433648372,998.4891720297056,100.85368945009722,-0.17,-0.89,2840,2840,2840,2840,3.6425386561084516,-4.510547867776849,2.338621654342165,13.29
0.5,1.632750410765709,997.9781686402858,101.10266048899987,-0.17,-0.89,2900,2900,2900,2900,4.126659674008717,-5.110033894198027,2.4897103890265684,13.29
0.6,2.100262815514848,997.3992490241923,101.36771652359691,-0.17,-0.89,2960,2960,2960,2960,4.6751240474913915,-5.789196160936148,2.6505603459703058,13.29
0.7,2.6299111651738865,996.7433865997209,101.64989673935996,-0.16,-0.89,3020,3020,3020,3020,5.296483496590385,-6.558624244714052,2.8218021576305015,13.29
0.8,3.229953798154012,996.0003550839881,101.95030745926354,-0.16,-0.89,3080,3080,3080,3080,6.000426329801254,-7.430315157328363,3.0041071990357695,13.29
0.9,3.9097466486849446,995.1585690435434,102.27012648126318,-0.16,-0.89,3140,3140,3140,3140,6.797928505309326,-8.41786040444687,3.1981902199963788,13.29
1.0,4.679889125625046,994.2049032529494,102.61060769600023,-0.16,-0.89,3200,3200,3200,3200,7.7014247694010125,-9.536657905939128,3.404812147370605,13.29
1.1,5.514914092019298,993.1708936137122,102.97308600283763,-0.16,-0.89,3260,3260,3260,3260,8.350249663942522,-10.340096392371379,3.6247830683740707,13.29
1.2,6.34993905841355,992.136883974475,103.35898254350047,-0.16,-0.89,3320,3320,3320,3320,8.350249663942524,-10.340096392371379,3.8589654066284096,13.29
1.3,7.184964024807803,991.1028743352379,103.7698102738406,-0.16,-0.89,3380,3380,3380,3380,8.350249663942526,-10.340096392371379,4.108277303401371,13.29
1.4,8.019988991202055,990.0688646960007,104.2071798955701,-0.16,-0.89,3440,3440,3440,3440,8.350249663942526,-10.340096392371377,4.373696217294971,13.29
1.5,8.855013957596308,989.0348550567635,104.67280617121958,-0.16,-0.89,3500,3500,3500,3500,8.350249663942527,-10.340096392371377,4.656262756494721,13.29
1.6,9.69003892399056,988.0008454175263,105.16851464708004,-0.16,-0.89,3560,3560,3560,3560,8.350249663942527,-10.340096392371375,4.957084758604671,13.29
1.7,10.525063890384812,986.9668357782891,105.69624881048644,-0.16,-0.89,3620,3620,3620,3620,8.350249663942527,-10.340096392371374,5.277341634063901,13.29
1.8,11.360088856779065,985.9328261390519,106.25807770950377,-0.16,-0.89,3680,3680,3680,3680,8.35024966394253,-10.340096392371374,5.61828899017325,13.29
1.9,12.195113823173317,984.8988164998148,106.85620406488991,-0.16,-0.89,3740,3740,3740,3740,8.350249663942531,-10.340096392371374,5.981263553861436,13.29
2.0,13.03013878956757,983.8648068605776,107.49297290613899,-0.16,-0.89,3800,3800,3800,3800,8.350249663942531,-10.340096392371374,6.367688412490847,13.29
2.1,13.865163755961822,982.8307972213404,108.13903181183616,-0.16,-0.89,3860,3860,3860,3860,8.350249663942531,-10.340096392371374,6.460589056971775,13.29
2.2,14.700188722356074,981.7967875821032,108.78509071753334,-0.15,-0.89,3920,3920,3920,3920,8.350249663942533,-10.340096392371374,6.460589056971775,13.29
2.3,15.535213688750328,980.762777942866,109.43114962323051,-0.15,-0.89,3980,3980,3980,3980,8.350249663942533,-10.340096392371372,6.460589056971775,13.29
2.4,16.370238655144583,979.7287683036288,110.07720852892768,-0.15,-0.89,4040,4040,4040,4040,8.350249663942535,-10.340096392371372,6.460589056971775,13.29
2.5,17.205263621538837,978.6947586643917,110.72326743462486,-0.15,-0.89,4100,4100,4100,4100,8.350249663942535,-10.34009639237137,6.460589056971775,13.29
2.6,18.04028858793309,977.6607490251545,111.36932634032203,-0.15,-0.89,4160,4160,4160,4160,8.350249663942536,-10.34009639237137,6.460589056971775,13.29
2.7,18.875313554327345,976.6267393859173,112.0153852460192,-0.15,-0.89,4220,4220,4220,4220,8.350249663942538,-10.34009639237137,6.460589056971775,13.29
2.8,19.7103385207216,975.5927297466801,112.66144415171638,-0.15,-0.89,4280,4280,4280,4280,8.350249663942538,-10.340096392371368,6.460589056971775,13.29
2.9,20.545363487115853,974.5587201074429,113.30750305741356,-0.15,-0.89,4340,4340,4340,4340,8.35024966394254,-10.340096392371368,6.460589056971775,13.29
3.0,21.380388453510108,973.5247104682057,113.95356196311073,-0.14,-0.89,4400,4400,4400,4400,8.35024966394254,-10.340096392371365,6.460589056971775,13.29
3.1,22.215413419904362,972.4907008289686,114.5996208688079,-0.14,-0.89,4460,4460,4460,4460,8.35024966394254,-10.340096392371365,6.460589056971775,13.29
3.2,23.050438386298616,971.4566911897314,115.24567977450508,-0.14,-0.89,4520,4520,4520,4520,8.35024966394254,-10.340096392371365,6.460589056971775,13.29
3.3,23.88546335269287,970.4226815504942,115.89173868020225,-0.14,-0.89,4580,4580,4580,4580,8.350249663942542,-10.340096392371365,6.460589056971775,13.29
3.4,24.720488319087124,969.388671911257,116.53779758589943,-0.14,-0.89,4640,4640,4640,4640,8.350249663942543,-10.340096392371365,6.460589056971775,13.29
3.5,25.55551328548138,968.3546622720198,117.1838564915966,-0.14,-0.89,4700,4700,4700,4700,8.350249663942543,-10.340096392371363,6.460589056971775,13.29
3.6,26.390538251875633,967.3206526327826,117.82991539729377,-0.14,-0.89,4760,4760,4760,4760,8.350249663942545,-10.340096392371363,6.460589056971775,13.29
3.7,27.225563218269887,966.2866429935455,118.47597430299095,-0.14,-0.89,4820,4820,4820,4820,8.350249663942545,-10.340096392371361,6.460589056971775,13.29
3.8,28.06058818466414,965.2526333543083,119.12203320868812,-0.13,-0.89,4760,4760,4760,4760,8.350249663942547,-10.340096392371361,6.460589056971775,13.29
3.9,28.895613151058395,964.2186237150711,119.7680921143853,-0.13,-0.89,4820,4820,4820,4820,8.350249663942549,-10.340096392371361,6.460589056971775,13.29
4.0,29.73063811745265,963.1846140758339,120.41415102008247,-0.13,-0.89,4760,4760,4760,4760,8.350249663942549,-10.340096392371358,6.460589056971775,13.29
4.1,30.565663083846903,962.1506044365967,121.06020992577965,-0.13,-0.89,4820,4820,4820,4820,8.350249663942549,-10.340096392371358,6.460589056971775,13.29
4.2,31.400688050241158,961.1165947973595,121.70626883147682,-0.13,-0.89,4760,4760,4760,4760,8.350249663942549,-10.340096392371358,6.460589056971775,13.29
4.3,32.235713016635415,960.0825851581224,122.352327737174,-0.13,-0.89,4820,4820,4820,4820,8.35024966394255,-10.340096392371358,6.460589056971775,13.29
4.4,33.07073798302967,959.0485755188852,122.99838664287117,-0.13,-0.89,4760,4760,4760,4760,8.350249663942552,-10.340096392371358,6.460589056971775,13.29
4.5,33.90576294942393,958.014565879648,123.64444554856834,-0.12,-0.89,4820,4820,4820,4820,8.350249663942552,-10.340096392371356,6.460589056971775,13.29
4.6,34.74078791581819,956.9805562404108,124.29050445426552,-0.12,-0.89,4760,4760,4760,4760,8.350249663942554,-10.340096392371356,6.460589056971775,13.29
4.7,35.575812882212446,955.9465466011736,124.93656335996269,-0.12,-0.89,4820,4820,4820,4820,8.350249663942556,-10.340096392371356,6.460589056971775,13.29
4.8,36.410837848606704,954.9125369619364,125.58262226565986,-0.12,-0.89,4760,4760,4760,4760,8.350249663942556,-10.340096392371352,6.460589056971775,13.29
4.9,37.24586281500096,953.8785273226993,126.22868117135704,-0.12,-0.89,4820,4820,4820,4820,8.350249663942558,-10.340096392371352,6.460589056971775,13.29
5.0,38.08088778139522,952.8445176834621,126.87474007705421,-0.12,-0.89,4760,4760,4760,4760,8.350249663942558,-10.340096392371352,6.460589056971775,13.29
5.1,38.91591274778948,951.8105080442249,127.52079898275139,-0.11,-0.89,4820,4820,4820,4820,8.350249663942558,-10.34009639237135,6.460589056971775,13.29
5.2,39.750937714183735,950.7764984049877,128.16685788844856,-0.11,-0.89,4760,4760,4760,4760,8.35024966394256,-10.34009639237135,6.460589056971775,13.29
5.3,40.58596268057799,949.7424887657505,128.81291679414574,-0.11,-0.89,4820,4820,4820,4820,8.350249663942561,-10.34009639237135,6.460589056971775,13.29
5.4,41.42098764697225,948.7084791265133,129.4589756998429,-0.11,-0.89,4760,4760,4760,4760,8.350249663942561,-10.340096392371349,6.460589056971775,13.29
5.5,42.25601261336651,947.6744694872762,130.10503460554008,-0.11,-0.89,4820,4820,4820,4820,8.350249663942563,-10.340096392371349,6.460589056971775,13.29
5.6,43.091037579760766,946.640459848039,130.75109351123726,-0.11,-0.89,4760,4760,4760,4760,8.350249663942563,-10.340096392371347,6.460589056971775,13.29
5.7,43.92606254615502,945.6064502088018,131.39715241693443,-0.11,-0.89,4820,4820,4820,4820,8.350249663942565,-10.340096392371347,6.460589056971775,13.29
5.8,44.76108751254928,944.5724405695646,132.0432113226316,-0.1,-0.89,4760,4760,4760,4760,8.350249663942567,-10.340096392371347,6.460589056971775,13.29
5.9,45.59611247894354,943.5384309303274,132.68927022832878,-0.1,-0.89,4820,4820,4820,4820,8.350249663942567,-10.340096392371343,6.460589056971775,13.29
6.0,46.4311374453378,942.5044212910902,133.33532913402595,-0.1,-0.89,4760,4760,4760,4760,8.350249663942567,-10.340096392371343,6.460589056971775,13.29
6.1,47.266162411732054,941.470411651853,133.98138803972313,-0.1,-0.89,4820,4820,4820,4820,8.350249663942568,-10.340096392371343,6.460589056971775,13.29
6.2,48.10118737812631,940.4364020126159,134.6274469454203,-0.1,-0.89,4760,4760,4760,4760,8.350249663942568,-10.340096392371342,6.460589056971775,13.29
6.3,48.93621234452057,939.4023923733787,135.27350585111748,-0.1,-0.89,4820,4820,4820,4820,8.35024966394257,-10.340096392371342,6.460589056971775,13.29
6.4,49.77123731091483,938.3683827341415,135.91956475681465,-0.09,-0.89,4760,4760,4760,4760,8.350249663942572,-10.340096392371342,6.460589056971775,13.29
6.5,50.606262277309085,937.3343730949043,136.56562366251183,-0.09,-0.89,4820,4820,4820,4820,8.350249663942572,-10.34009639237134,6.460589056971775,13.29
6.6,51.44128724370334,936.3003634556671,137.211682568209,-0.09,-0.89,4760,4760,4760,4760,8.350249663942575,-10.34009639237134,6.460589056971775,13.29
6.7,52.2763122100976,935.26635381643,137.85774147390617,-0.09,-0.89,4820,4820,4820,4820,8.350249663942575,-10.34009639237134,6.460589056971775,13.29
6.8,53.11133717649186,934.2323441771928,138.50380037960335,-0.09,-0.89,4760,4760,4760,4760,8.350249663942575,-10.340096392371338,6.460589056971775,13.29
6.9,53.946362142886116,933.1983345379556,139.14985928530052,-0.08,-0.89,4820,4820,4820,4820,8.350249663942577,-10.340096392371338,6.460589056971775,13.29
7.0,54.781387109280374,932.1643248987184,139.7959181909977,-0.08,-0.89,4760,4760,4760,4760,8.350249663942579,-10.340096392371336,6.460589056971775,13.29
7.1,55.61641207567463,931.1303152594812,140.44197709669487,-0.08,-0.89,4820,4820,4820,4820,8.350249663942579,-10.340096392371334,6.460589056971775,13.29
7.2,56.45143704206889,930.096305620244,141.08803600239204,-0.08,-0.89,4760,4760,4760,4760,8.35024966394258,-10.340096392371334,6.460589056971775,13.29
7.3,57.28646200846315,929.0622959810069,141.73409490808922,-0.08,-0.89,4820,4820,4820,4820,8.35024966394258,-10.340096392371331,6.460589056971775,13.29
7.4,58.121486974857405,928.0282863417697,142.3801538137864,-0.08,-0.89,4760,4760,4760,4760,8.350249663942583,-10.340096392371331,6.460589056971775,13.29
7.5,58.95651194125166,926.9942767025325,143.02621271948357,-0.07,-0.89,4820,4820,4820,4820,8.350249663942584,-10.340096392371331,6.460589056971775,13.29
7.6,59.79153690764592,925.9602670632953,143.67227162518074,-0.07,-0.89,4760,4760,4760,4760,8.350249663942584,-10.34009639237133,6.460589056971775,13.29
7.7,60.62656187404018,924.9262574240581,144.31833053087792,-0.07,-0.89,4820,4820,4820,4820,8.350249663942586,-10.34009639237133,6.460589056971775,13.29
7.8,61.461586840434435,923.8922477848209,144.9643894365751,-0.07,-0.89,4760,4760,4760,4760,8.350249663942586,-10.340096392371327,6.460589056971775,13.29
7.9,62.29661180682869,922.8582381455838,145.61044834227226,-0.07,-0.89,4820,4820,4820,4820,8.350249663942588,-10.340096392371327,6.460589056971775,13.29
8.0,63.13163677322295,921.8242285063466,146.25650724796944,-0.06,-0.89,4760,4760,4760,4760,8.350249663942591,-10.340096392371326,6.460589056971775,13.29
8.1,63.96666173961721,920.7902188671094,146.9025661536666,-0.06,-0.89,4820,4820,4820,4820,8.350249663942591,-10.340096392371324,6.460589056971775,13.29
8.2,64.80168670601147,919.7562092278722,147.5486250593638,-0.06,-0.89,4760,4760,4760,4760,8.350249663942591,-10.340096392371324,6.460589056971775,13.29
8.3,65.63671167240572,918.722199588635,148.19468396506096,-0.06,-0.89,4820,4820,4820,4820,8.350249663942593,-10.340096392371324,6.460589056971775,13.29
8.4,66.47173663879998,917.6881899493978,148.84074287075813,-0.05,-0.89,4760,4760,4760,4760,8.350249663942593,-10.340096392371322,6.460589056971775,13.29
8.5,67.30676160519424,916.6541803101607,149.4868017764553,-0.05,-0.89,4820,4820,4820,4820,8.350249663942597,-10.340096392371322,6.460589056971775,13.29
8.6,68.1417865715885,915.6201706709235,150.13286068215248,-0.05,-0.89,4760,4760,4760,4760,8.350249663942598,-10.340096392371322,6.460589056971775,13.29
8.7,68.97681153798275,914.5861610316863,150.77891958784966,-0.05,-0.89,4820,4820,4820,4820,8.350249663942598,-10.340096392371319,6.460589056971775,13.29
8.8,69.81183650437701,913.5521513924491,151.42497849354683,-0.05,-0.89,4760,4760,4760,4760,8.3502496639426,-10.340096392371319,6.460589056971775,13.29
8.9,70.64686147077127,912.5181417532119,152.05273332321164,-0.04,-0.89,4736,4736,4736,4736,8.3502496639426,-10.340096392371315,6.277548296647975,13.29
9.0,71.48188643716553,911.4841321139747,152.65345037965648,-0.04,-0.89,4676,4676,4676,4676,8.350249663942602,-10.340096392371315,6.0071705644483995,13.29
9.1,72.31691140355979,910.4501224747376,153.22829419582663,-0.04,-0.89,4616,4616,4616,4616,8.350249663942604,-10.340096392371315,5.748438161701478,13.29
9.2,73.15193636995404,909.4161128355004,153.778379147542,-0.04,-0.89,4556,4556,4556,4556,8.350249663942607,-10.340096392371313,5.50084951715369,13.29
9.3,73.9869613363483,908.3821031962632,154.30477161379434,-0.04,-0.89,4496,4496,4496,4496,8.350249663942607,-10.340096392371313,5.263924662523209,13.29
9.4,74.82198630274256,907.348093557026,154.80849204399905,-0.03,-0.89,4436,4436,4436,4436,8.35024966394261,-10.340096392371311,5.037204302047062,13.29
9.5,75.65701126913682,906.3140839177888,155.2905169362094,-0.03,-0.89,4376,4376,4376,4376,8.35024966394261,-10.34009639237131,4.820248922103485,13.29
9.6,76.49203623553107,905.2800742785516,155.75178073012773,-0.03,-0.89,4316,4316,4316,4316,8.350249663942611,-10.340096392371308,4.612637939183341,13.29
9.7,77.32706120192533,904.2460646393145,156.19317761858363,-0.03,-0.89,4256,4256,4256,4256,8.350249663942613,-10.340096392371306,4.413968884558936,13.29
9.8,78.16208616831959,903.2120550000773,156.61556328099059,-0.03,-0.89,4196,4196,4196,4196,8.350249663942614,-10.340096392371306,4.223856624069632,13.29
9.9,78.99711113471385,902.1780453608401,157.01975654214175,-0.03,-0.89,4136,4136,4136,4136,8.350249663942616,-10.340096392371304,4.041932611511756,13.29
10.0,79.8321361011081,901.1440357216029,157.4065409595603,-0.02,-0.89,4076,4076,4076,4076,8.350249663942618,-10.340096392371304,3.867844174185426,13.29
10.1,80.66716106750236,900.1100260823657,157.77666634248163,-0.02,-0.89,4016,4016,4016,4016,8.350249663942618,-10.340096392371303,3.701253829213332,13.29
10.2,81.50218603389662,899.0760164431285,158.13085020541223,-0.02,-0.89,3956,3956,3956,3956,8.35024966394262,-10.340096392371303,3.541838629306057,13.29
10.3,82.33721100029088,898.0420068038914,158.4697791590828,-0.02,-0.89,3896,3896,3896,3896,8.350249663942622,-10.3400963923713,3.389289536705696,13.29
10.4,83.17223596668514,897.0079971646542,158.7941102414922,-0.02,-0.89,3836,3836,3836,3836,8.350249663942623,-10.340096392371299,3.2433108240940296,13.29
10.5,84.0072609330794,895.973987525417,159.10447219162262,-0.02,-0.89,3867,3867,3867,3867,8.350249663942627,-10.340096392371297,3.1036195013040295,13.29
10.6,84.84228589947365,894.9399778861798,159.40146666829494,-0.02,-0.89,3807,3807,3807,3807,8.350249663942627,-10.340096392371295,2.969944766723165,13.29
10.7,85.67731086586791,893.9059682469426,159.68566941652745,-0.02,-0.89,3747,3747,3747,3747,8.350249663942629,-10.340096392371295,2.8420274823251463,13.29
10.8,86.51233583226217,892.8719586077054,159.95763138365868,-0.01,-0.89,3687,3687,3687,3687,8.350249663942629,-10.340096392371294,2.7196196713123326,13.29
10.9,87.34736079865642,891.8379489684683,160.21787978739818,-0.01,-0.89,3743,3743,3743,3743,8.35024966394263,-10.340096392371292,2.602484037394962,13.29
11.0,88.18238576505068,890.8039393292311,160.46691913787572,-0.01,-0.89,3683,3683,3683,3683,8.350249663942634,-10.340096392371292,2.490393504775378,13.29
11.1,89.01741073144494,889.7699296899939,160.70523221567026,-0.01,-0.89,3623,3623,3623,3623,8.350249663942636,-10.340096392371288,2.383130777945339,13.29
11.2,89.8524356978392,888.7359200507567,160.93328100771458,-0.01,-0.89,3563,3563,3563,3563,8.350249663942636,-10.340096392371287,2.280487920443159,13.29
11.3,90.68746066423346,887.7019104115195,161.15150760288998,-0.01,-0.89,3623,3623,3623,3623,8.350249663942638,-10.340096392371287,2.182265951754015,13.29
11.4,91.52248563062771,886.6679007722823,161.36033504904717,-0.01,-0.89,3563,3563,3563,3563,8.350249663942641,-10.340096392371287,2.0882744615719906,13.29
11.5,92.35751059702197,885.6338911330452,161.56016817311476,-0.01,-0.89,3503,3503,3503,3503,8.350249663942643,-10.340096392371283,1.9983312406760916,13.29
11.6,93.19253556341623,884.599881493808,161.75139436588523,-0.01,-0.89,3488,3488,3488,3488,8.350249663942645,-10.340096392371281,1.9122619277046524,13.29
11.7,94.02756052981049,883.5658718545708,161.93438433299957,-0.01,-0.89,3430,3430,3430,3430,8.350249663942645,-10.340096392371281,1.8298996711433664,13.29
11.8,94.86258549620476,882.5318622153336,162.10949281358674,-0.0,-0.89,3490,3490,3490,3490,8.350249663942648,-10.34009639237128,1.751084805871732,13.29
11.9,95.69761046259903,881.4978525760964,162.27705926795082,-0.0,-0.89,3430,3430,3430,3430,8.35024966394265,-10.340096392371278,1.6756645436407704,13.29
12.0,96.5326354289933,880.4638429368592,162.43740853563904,-0.0,-0.89,3370,3370,3370,3370,8.350249663942652,-10.340096392371278,1.6034926768820956,13.29
12.1,97.36766039538757,879.429833297622,162.59085146516645,-0.0,-0.89,3430,3430,3430,3430,8.350249663942652,-10.340096392371276,1.5344292952740994,13.29
12.2,98.20268536178185,878.3958236583849,162.73768551661803,-0.0,-0.89,3370,3370,3370,3370,8.350249663942654,-10.340096392371274,1.4683405145157988,13.29
12.3,99.03771032817612,877.3618140191477,162.87819533829628,-0.0,-0.89,3310,3310,3310,3310,8.350249663942654,-10.340096392371272,1.4050982167825397,13.29
12.4,99.87273529457039,876.3278043799105,163.0,-0.0,-0.89,3370,3370,3370,3370,8.350249663942657,-10.340096392371272,0.0,13.29
12.5,100.70776026096466,875.2937947406733,163.0,-0.0,-0.89,3310,3310,3310,3310,8.350249663942657,-10.340096392371269,0.0,13.29
12.6,101.54278522735893,874.2597851014361,163.0,-0.0,-0.89,3250,3250,3250,3250,8.350249663942659,-10.34009639237127,0.0,13.29
12.7,102.3778101937532,873.225775462199,163.0,-0.0,-0.89,3190,3190,3190,3190,8.350249663942662,-10.340096392371269,0.0,13.29
12.8,103.21283516014748,872.1917658229618,163.0,-0.0,-0.89,3130,3130,3130,3130,8.350249663942662,-10.340096392371267,0.0,13.29
12.9,104.04786012654175,871.1577561837246,163.0,-0.0,-0.89,3070,3070,3070,3070,8.350249663942664,-10.340096392371265,0.0,13.29
13.0,104.88288509293602,870.1237465444874,163.0,-0.0,-0.89,3010,3010,3010,3010,8.350249663942664,-10.340096392371265,0.0,13.29
13.1,105.7179100593303,869.0897369052503,163.0,-0.0,-0.89,2950,2950,2950,2950,8.350249663942666,-10.340096392371263,0.0,13.29
13.2,106.55293502572457,868.0557272660133,163.0,-0.0,-0.89,2948,2948,2948,2948,8.350249663942666,-10.340096392371265,0.0,13.29
