Time(s),X,Y,Z,Pitch,Yaw,FL,FR,RL,RR,Vx,Vy,Vz,Hor_Speed
0.1,0.09442671988691054,0.16567083189739396,100.16178713231419,-0.8,1.05,2160,2160,2160,2160,0.94,1.66,1.62,6.36
0.2,0.194855562556707,0.3418723343060788,100.33229929002253,-0.8,1.05,2220,2220,2220,2220,1.0,1.76,1.71,6.36
0.3,0.3016680458461201,0.5292738768437917,100.51200700540431,-0.8,1.05,2280,2280,2280,2280,1.07,1.87,1.8,6.36
0.4,0.4152699383219989,0.7285873768164413,100.70140618609489,-0.8,1.05,2340,2340,2340,2340,1.14,1.99,1.89,6.36
0.5,0.536092800750292,0.9405700037115903,100.90101948355432,-0.8,1.05,2400,2400,2400,2400,1.21,2.12,2.0,6.36
0.6,0.6645956255466825,1.1660270555998682,101.11139773533634,-0.8,1.05,2460,2460,2460,2460,1.29,2.25,2.1,6.36
0.7,0.8012665804369632,1.4058150183714386,101.33312148513738,-0.8,1.05,2520,2520,2520,2520,1.37,2.4,2.22,6.36
0.8,0.9466248629511217,1.6608448194292138,101.56680258482051,-0.8,1.05,2580,2580,2580,2580,1.45,2.55,2.34,6.36
0.9,1.101222672796149,1.9320852881992316,101.81308588283488,-0.8,1.05,2640,2640,2640,2640,1.55,2.71,2.46,6.36
1.0,1.2656473096003928,2.2205668366042826,102.07265100369014,-0.8,1.05,2700,2700,2700,2700,1.64,2.88,2.6,6.36
1.1,1.4405234039985515,2.527385373482489,102.34621422339605,-0.8,1.05,2760,2760,2760,2760,1.75,3.07,2.74,6.36
1.2,1.626515290532944,2.8537064678212736,102.6345304460429,-0.8,1.05,2820,2820,2820,2820,1.86,3.26,2.88,6.36
1.3,1.8243295313854468,3.2007697766223715,102.938395286977,-0.81,1.05,2880,2880,2880,2880,1.98,3.47,3.04,6.36
1.4,2.0347176005274643,3.569893754218845,103.2586472683197,-0.81,1.05,2940,2940,2940,2940,2.1,3.69,3.2,6.36
1.5,2.2584787384847176,3.9624806609342658,103.59617013288887,-0.81,1.05,3000,3000,3000,3000,2.24,3.93,3.38,6.36
1.6,2.496462988561784,4.3800218901113945,103.95189528290774,-0.81,1.05,3060,3060,3060,3060,2.38,4.18,3.56,6.36
1.7,2.7495744260606556,4.824103633747139,104.32680435023114,-0.81,1.05,3120,3120,3120,3120,2.53,4.44,3.75,6.36
1.8,3.018774592760758,5.296412908256899,104.72193190518149,-0.81,1.05,3180,3180,3180,3180,2.69,4.72,3.95,6.36
1.9,3.30508614970763,5.798743963259495,105.13836831146975,-0.81,1.05,3240,3240,3240,3240,2.86,5.02,4.16,6.36
2.0,3.6095967621867975,6.3330050977289325,105.57726273507954,-0.81,1.05,3300,3300,3300,3300,3.05,5.34,4.39,6.36
2.1,3.924352495143166,6.885241204053579,106.0398263154175,-0.81,1.05,3360,3360,3360,3360,3.15,5.52,4.63,6.36
2.2,4.239108228099535,7.437477310378226,106.52733550748074,-0.81,1.05,3420,3420,3420,3420,3.15,5.52,4.88,6.36
2.3,4.553863961055903,7.989713416702872,107.04113560426423,-0.81,1.05,3480,3480,3480,3480,3.15,5.52,5.14,6.36
2.4,4.8686196940122715,8.541949523027519,107.58042604531153,-0.81,1.05,3540,3540,3540,3540,3.15,5.52,5.39,6.36
2.5,5.18337542696864,9.094185629352165,108.11971648635883,-0.81,1.05,3600,3600,3600,3600,3.15,5.52,5.39,6.36
2.6,5.498131159925008,9.64642173567681,108.65900692740612,-0.81,1.05,3660,3660,3660,3660,3.15,5.52,5.39,6.36
2.7,5.812886892881377,10.198657842001456,109.19829736845342,-0.81,1.05,3720,3720,3720,3720,3.15,5.52,5.39,6.36
2.8,6.127642625837745,10.750893948326102,109.73758780950072,-0.81,1.05,3780,3780,3780,3780,3.15,5.52,5.39,6.36
2.9,6.442398358794113,11.303130054650747,110.27687825054802,-0.81,1.05,3840,3840,3840,3840,3.15,5.52,5.39,6.36
3.0,6.757154091750482,11.855366160975393,110.81616869159532,-0.81,1.05,3900,3900,3900,3900,3.15,5.52,5.39,6.36
3.1,7.07190982470685,12.407602267300039,111.35545913264262,-0.81,1.05,3960,3960,3960,3960,3.15,5.52,5.39,6.36
3.2,7.3866655576632185,12.959838373624684,111.89474957368992,-0.81,1.05,4020,4020,4020,4020,3.15,5.52,5.39,6.36
3.3,7.701421290619587,13.51207447994933,112.43404001473722,-0.81,1.05,4080,4080,4080,4080,3.15,5.52,5.39,6.36
3.4,8.016177023575956,14.064310586273976,112.97333045578452,-0.81,1.05,4140,4140,4140,4140,3.15,5.52,5.39,6.36
3.5,8.330932756532324,14.616546692598622,113.51262089683182,-0.81,1.05,4200,4200,4200,4200,3.15,5.52,5.39,6.36
3.6,8.645688489488691,15.168782798923267,114.05191133787912,-0.81,1.05,4260,4260,4260,4260,3.15,5.52,5.39,6.36
3.7,8.960444222445059,15.721018905247913,114.59120177892642,-0.81,1.05,4320,4320,4320,4320,3.15,5.52,5.39,6.36
3.8,9.275199955401426,16.27325501157256,115.13049221997372,-0.81,1.05,4380,4380,4380,4380,3.15,5.52,5.39,6.36
3.9,9.589955688357794,16.825491117897204,115.66978266102102,-0.81,1.05,4331,4331,4331,4331,3.15,5.52,5.39,6.36
4.0,9.904711421314163,17.37772722422185,116.20907310206832,-0.81,1.05,4391,4391,4391,4391,3.15,5.52,5.39,6.36
4.1,10.219467154270532,17.929963330546496,116.74836354311562,-0.81,1.05,4331,4331,4331,4331,3.15,5.52,5.39,6.36
4.2,10.534222887226901,18.48219943687114,117.28765398416292,-0.81,1.05,4391,4391,4391,4391,3.15,5.52,5.39,6.36
4.3,10.84897862018327,19.034435543195787,117.82694442521021,-0.81,1.05,4331,4331,4331,4331,3.15,5.52,5.39,6.36
4.4,11.16373435313964,19.586671649520433,118.36623486625751,-0.81,1.05,4391,4391,4391,4391,3.15,5.52,5.39,6.36
4.5,11.47849008609601,20.13890775584508,118.90552530730481,-0.81,1.05,4331,4331,4331,4331,3.15,5.52,5.39,6.36
4.6,11.793245819052377,20.691143862169724,119.44481574835211,-0.81,1.05,4391,4391,4391,4391,3.15,5.52,5.39,6.36
4.7,12.108001552008744,21.24337996849437,119.98410618939941,-0.81,1.05,4331,4331,4331,4331,3.15,5.52,5.39,6.36
4.8,12.422757284965112,21.795616074819016,120.52339663044671,-0.81,1.05,4391,4391,4391,4391,3.15,5.52,5.39,6.36
4.9,12.73751301792148,22.34785218114366,121.06268707149401,-0.81,1.05,4331,4331,4331,4331,3.15,5.52,5.39,6.36
5.0,13.052268750877847,22.900088287468307,121.60197751254131,-0.81,1.05,4391,4391,4391,4391,3.15,5.52,5.39,6.36
5.1,13.367024483834214,23.452324393792953,122.14126795358861,-0.81,1.05,4331,4331,4331,4331,3.15,5.52,5.39,6.36
5.2,13.681780216790584,24.0045605001176,122.68055839463591,-0.81,1.05,4391,4391,4391,4391,3.15,5.52,5.39,6.36
5.3,13.996535949746953,24.556796606442244,123.21984883568321,-0.81,1.05,4331,4331,4331,4331,3.15,5.52,5.39,6.36
5.4,14.31129168270332,25.10903271276689,123.75913927673051,-0.81,1.05,4391,4391,4391,4391,3.15,5.52,5.39,6.36
5.5,14.626047415659688,25.661268819091536,124.29842971777781,-0.81,1.05,4331,4331,4331,4331,3.15,5.52,5.39,6.36
5.6,14.940803148616057,26.21350492541618,124.8377201588251,-0.81,1.05,4391,4391,4391,4391,3.15,5.52,5.39,6.36
5.7,15.255558881572426,26.765741031740827,125.3770105998724,-0.81,1.05,4331,4331,4331,4331,3.15,5.52,5.39,6.36
5.8,15.570314614528796,27.317977138065473,125.9163010409197,-0.81,1.05,4391,4391,4391,4391,3.15,5.52,5.39,6.36
5.9,15.885070347485165,27.87021324439012,126.455591481967,-0.81,1.05,4331,4331,4331,4331,3.15,5.52,5.39,6.36
6.0,16.199826080441532,28.422449350714764,126.9948819230143,-0.81,1.05,4391,4391,4391,4391,3.15,5.52,5.39,6.36
6.1,16.5145818133979,28.97468545703941,127.5341723640616,-0.81,1.05,4331,4331,4331,4331,3.15,5.52,5.39,6.36
6.2,16.829337546354267,29.526921563364056,128.0734628051089,-0.82,1.05,4391,4391,4391,4391,3.15,5.52,5.39,6.36
6.3,17.144093279310635,30.0791576696887,128.61275324615622,-0.82,1.05,4331,4331,4331,4331,3.15,5.52,5.39,6.36
6.4,17.458849012267002,30.631393776013347,129.15204368720353,-0.82,1.05,4391,4391,4391,4391,3.15,5.52,5.39,6.36
6.5,17.77360474522337,31.183629882337993,129.69133412825084,-0.82,1.05,4331,4331,4331,4331,3.15,5.52,5.39,6.36
6.6,18.088360478179737,31.73586598866264,130.23062456929816,-0.82,1.05,4391,4391,4391,4391,3.15,5.52,5.39,6.36
6.7,18.403116211136105,32.28810209498729,130.76991501034547,-0.82,1.05,4331,4331,4331,4331,3.15,5.52,5.39,6.36
6.8,18.717871944092472,32.84033820131194,131.30920545139278,-0.82,1.05,4391,4391,4391,4391,3.15,5.52,5.39,6.36
6.9,19.03262767704884,33.392574307636586,131.8484958924401,-0.82,1.05,4331,4331,4331,4331,3.15,5.52,5.39,6.36
7.0,19.347383410005207,33.944810413961235,132.3877863334874,-0.82,1.05,4391,4391,4391,4391,3.15,5.52,5.39,6.36
7.1,19.662139142961575,34.497046520285885,132.92707677453473,-0.82,1.05,4331,4331,4331,4331,3.15,5.52,5.39,6.36
7.2,19.976894875917942,35.049282626610534,133.46636721558204,-0.82,1.05,4391,4391,4391,4391,3.15,5.52,5.39,6.36
7.3,20.29165060887431,35.60151873293518,134.00565765662935,-0.82,1.05,4331,4331,4331,4331,3.15,5.52,5.39,6.36
7.4,20.606406341830677,36.15375483925983,134.54494809767667,-0.82,1.05,4391,4391,4391,4391,3.15,5.52,5.39,6.36
7.5,20.921162074787045,36.70599094558448,135.08423853872398,-0.82,1.05,4331,4331,4331,4331,3.15,5.52,5.39,6.36
7.6,21.235917807743412,37.25822705190913,135.6235289797713,-0.82,1.05,4391,4391,4391,4391,3.15,5.52,5.39,6.36
7.7,21.55067354069978,37.81046315823378,136.1628194208186,-0.82,1.05,4331,4331,4331,4331,3.15,5.52,5.39,6.36
7.8,21.865429273656147,38.36269926455843,136.70210986186592,-0.82,1.05,4391,4391,4391,4391,3.15,5.52,5.39,6.36
7.9,22.180185006612515,38.91493537088308,137.24140030291323,-0.82,1.05,4331,4331,4331,4331,3.15,5.52,5.39,6.36
8.0,22.494940739568882,39.46717147720773,137.78069074396055,-0.82,1.05,4391,4391,4391,4391,3.15,5.52,5.39,6.36
8.1,22.80969647252525,40.01940758353238,138.31998118500786,-0.82,1.05,4331,4331,4331,4331,3.15,5.52,5.39,6.36
8.2,23.124452205481617,40.57164368985703,138.85927162605518,-0.82,1.05,4391,4391,4391,4391,3.15,5.52,5.39,6.36
8.3,23.439207938437985,41.123879796181676,139.3985620671025,-0.82,1.05,4331,4331,4331,4331,3.15,5.52,5.39,6.36
8.4,23.753963671394352,41.676115902506325,139.9378525081498,-0.82,1.05,4391,4391,4391,4391,3.15,5.52,5.39,6.36
8.5,24.06871940435072,42.228352008830974,140.47714294919712,-0.82,1.05,4331,4331,4331,4331,3.15,5.52,5.39,6.36
8.6,24.383475137307087,42.78058811515562,141.01643339024443,-0.82,1.05,4391,4391,4391,4391,3.15,5.52,5.39,6.36
8.7,24.698230870263455,43.33282422148027,141.55572383129174,-0.82,1.05,4331,4331,4331,4331,3.15,5.52,5.39,6.36
8.8,25.012986603219822,43.88506032780492,142.09501427233906,-0.82,1.05,4391,4391,4391,4391,3.15,5.52,5.39,6.36
8.9,25.32774233617619,44.43729643412957,142.63430471338637,-0.82,1.05,4331,4331,4331,4331,3.15,5.52,5.39,6.36
9.0,25.642498069132557,44.98953254045422,143.17359515443368,-0.82,1.05,4391,4391,4391,4391,3.15,5.52,5.39,6.36
9.1,25.957253802088925,45.54176864677887,143.712885595481,-0.82,1.05,4331,4331,4331,4331,3.15,5.52,5.39,6.36
9.2,26.272009535045292,46.09400475310352,144.2521760365283,-0.82,1.05,4391,4391,4391,4391,3.15,5.52,5.39,6.36
9.3,26.58676526800166,46.64624085942817,144.79146647757563,-0.82,1.05,4331,4331,4331,4331,3.15,5.52,5.39,6.36
9.4,26.901521000958027,47.19847696575282,145.33075691862294,-0.82,1.05,4391,4391,4391,4391,3.15,5.52,5.39,6.36
9.5,27.216276733914395,47.75071307207747,145.87004735967025,-0.82,1.05,4331,4331,4331,4331,3.15,5.52,5.39,6.36
9.6,27.531032466870762,48.302949178402116,146.40933780071757,-0.82,1.05,4391,4391,4391,4391,3.15,5.52,5.39,6.36
9.7,27.84578819982713,48.855185284726765,146.94862824176488,-0.82,1.05,4331,4331,4331,4331,3.15,5.52,5.39,6.36
9.8,28.160543932783497,49.407421391051415,147.4879186828122,-0.82,1.05,4391,4391,4391,4391,3.15,5.52,5.39,6.36
9.9,28.475299665739865,49.959657497376064,148.0272091238595,-0.82,1.05,4331,4331,4331,4331,3.15,5.52,5.39,6.36
10.0,28.790055398696232,50.51189360370071,148.56649956490682,-0.82,1.05,4391,4391,4391,4391,3.15,5.52,5.39,6.36
10.1,29.1048111316526,51.06412971002536,149.10579000595413,-0.82,1.05,4331,4331,4331,4331,3.15,5.52,5.39,6.36
10.2,29.419566864608967,51.61636581635001,149.64508044700145,-0.82,1.05,4391,4391,4391,4391,3.15,5.52,5.39,6.36
10.3,29.734322597565335,52.16860192267466,150.18437088804876,-0.82,1.05,4331,4331,4331,4331,3.15,5.52,5.39,6.36
10.4,30.049078330521702,52.72083802899931,150.72366132909607,-0.82,1.05,4391,4391,4391,4391,3.15,5.52,5.39,6.36
10.5,30.36383406347807,53.27307413532396,151.2629517701434,-0.82,1.05,4331,4331,4331,4331,3.15,5.52,5.39,6.36
10.6,30.678589796434437,53.82531024164861,151.8022422111907,-0.83,1.05,4391,4391,4391,4391,3.15,5.52,5.39,6.36
10.7,30.993345529390805,54.37754634797326,152.34153265223802,-0.83,1.05,4331,4331,4331,4331,3.15,5.52,5.39,6.36
10.8,31.308101262347172,54.92978245429791,152.88082309328533,-0.83,1.05,4391,4391,4391,4391,3.15,5.52,5.39,6.36
10.9,31.62285699530354,55.482018560622556,153.42011353433264,-0.83,1.05,4331,4331,4331,4331,3.15,5.52,5.39,6.36
11.0,31.937612728259907,56.034254666947206,153.95940397537996,-0.83,1.05,4391,4391,4391,4391,3.15,5.52,5.39,6.36
11.1,32.25236846121628,56.586490773271855,154.49869441642727,-0.83,1.05,4331,4331,4331,4331,3.15,5.52,5.39,6.36
11.2,32.56712419417265,57.138726879596504,155.03798485747458,-0.83,1.05,4391,4391,4391,4391,3.15,5.52,5.39,6.36
11.3,32.88187992712902,57.69096298592115,155.5772752985219,-0.83,1.05,4331,4331,4331,4331,3.15,5.52,5.39,6.36
11.4,33.19663566008539,58.2431990922458,156.1165657395692,-0.83,1.05,4391,4391,4391,4391,3.15,5.52,5.39,6.36
11.5,33.51139139304176,58.79543519857045,156.65585618061652,-0.83,1.05,4331,4331,4331,4331,3.15,5.52,5.39,6.36
11.6,33.82614712599813,59.3476713048951,157.19514662166384,-0.83,1.05,4391,4391,4391,4391,3.15,5.52,5.39,6.36
11.7,34.140902858954504,59.89990741121975,157.73443706271115,-0.83,1.05,4331,4331,4331,4331,3.15,5.52,5.39,6.36
11.8,34.455658591910876,60.4521435175444,158.27372750375847,-0.83,1.05,4391,4391,4391,4391,3.15,5.52,5.39,6.36
11.9,34.77041432486725,61.00437962386905,158.81301794480578,-0.83,1.05,4331,4331,4331,4331,3.15,5.52,5.39,6.36
12.0,35.08517005782362,61.5566157301937,159.3523083858531,-0.83,1.05,4391,4391,4391,4391,3.15,5.52,5.39,6.36
12.1,35.39992579077999,62.10885183651835,159.8915988269004,-0.83,1.05,4331,4331,4331,4331,3.15,5.52,5.39,6.36
12.2,35.71468152373636,62.661087942843,160.43088926794772,-0.83,1.05,4391,4391,4391,4391,3.15,5.52,5.39,6.36
12.3,36.02943725669273,63.213324049167646,160.97017970899503,-0.83,1.05,4331,4331,4331,4331,3.15,5.52,5.39,6.36
12.4,36.3441929896491,63.765560155492295,161.50947015004235,-0.83,1.05,4391,4391,4391,4391,3.15,5.52,5.39,6.36
12.5,36.65894872260547,64.31779626181694,162.04876059108966,-0.83,1.05,4331,4331,4331,4331,3.15,5.52,5.39,6.36
12.6,36.973704455561844,64.87003236814158,162.58805103213697,-0.83,1.05,4391,4391,4391,4391,3.15,5.52,5.39,6.36
12.7,37.288460188518215,65.42226847446622,163.1273414731843,-0.83,1.05,4331,4331,4331,4331,3.15,5.52,5.39,6.36
12.8,37.603215921474586,65.97450458079086,163.6666319142316,-0.83,1.05,4391,4391,4391,4391,3.15,5.52,5.39,6.36
12.9,37.91797165443096,66.5267406871155,164.20592235527891,-0.83,1.05,4331,4331,4331,4331,3.15,5.52,5.39,6.36
13.0,38.23272738738733,67.07897679344015,164.74521279632623,-0.83,1.05,4391,4391,4391,4391,3.15,5.52,5.39,6.36
13.1,38.5474831203437,67.63121289976479,165.28450323737354,-0.83,1.05,4331,4331,4331,4331,3.15,5.52,5.39,6.36
13.2,38.86223885330007,68.18344900608943,165.82379367842086,-0.83,1.05,4391,4391,4391,4391,3.15,5.52,5.39,6.36
13.3,39.17699458625644,68.73568511241407,166.36308411946817,-0.83,1.05,4331,4331,4331,4331,3.15,5.52,5.39,6.36
13.4,39.49175031921281,69.28792121873872,166.90237456051548,-0.83,1.05,4391,4391,4391,4391,3.15,5.52,5.39,6.36
13.5,39.80650605216918,69.84015732506336,167.4416650015628,-0.83,1.05,4331,4331,4331,4331,3.15,5.52,5.39,6.36
13.6,40.121261785125554,70.392393431388,167.9809554426101,-0.83,1.05,4391,4391,4391,4391,3.15,5.52,5.39,6.36
13.7,40.436017518081925,70.94462953771264,168.52024588365742,-0.83,1.05,4331,4331,4331,4331,3.15,5.52,5.39,6.36
13.8,40.7507732510383,71.49686564403729,169.05953632470474,-0.83,1.05,4391,4391,4391,4391,3.15,5.52,5.39,6.36
13.9,41.06552898399467,72.04910175036193,169.59882676575205,-0.83,1.05,4331,4331,4331,4331,3.15,5.52,5.39,6.36
14.0,41.38028471695104,72.60133785668657,170.13811720679936,-0.83,1.05,4391,4391,4391,4391,3.15,5.52,5.39,6.36
14.1,41.69504044990741,73.15357396301121,170.67740764784668,-0.83,1.05,4331,4331,4331,4331,3.15,5.52,5.39,6.36
14.2,42.00979618286378,73.70581006933585,171.216698088894,-0.83,1.05,4391,4391,4391,4391,3.15,5.52,5.39,6.36
14.3,42.32455191582015,74.2580461756605,171.7559885299413,-0.84,1.05,4331,4331,4331,4331,3.15,5.52,5.39,6.36
14.4,42.63930764877652,74.81028228198514,172.29527897098862,-0.84,1.05,4391,4391,4391,4391,3.15,5.52,5.39,6.36
14.5,42.954063381732894,75.36251838830978,172.83456941203593,-0.84,1.05,4331,4331,4331,4331,3.15,5.52,5.39,6.36
14.6,43.268819114689265,75.91475449463442,173.37385985308325,-0.84,1.05,4391,4391,4391,4391,3.15,5.52,5.39,6.36
14.7,43.583574847645636,76.46699060095906,173.91315029413056,-0.84,1.05,4331,4331,4331,4331,3.15,5.52,5.39,6.36
14.8,43.89833058060201,77.0192267072837,174.45244073517787,-0.84,1.05,4391,4391,4391,4391,3.15,5.52,5.39,6.36
14.9,44.21308631355838,77.57146281360835,174.9917311762252,-0.84,1.05,4331,4331,4331,4331,3.15,5.52,5.39,6.36
15.0,44.52784204651475,78.12369891993299,175.5310216172725,-0.84,1.05,4391,4391,4391,4391,3.15,5.52,5.39,6.36
15.1,44.84259777947112,78.67593502625763,176.07031205831981,-0.84,1.05,4331,4331,4331,4331,3.15,5.52,5.39,6.36
15.2,45.15735351242749,79.22817113258228,176.60960249936713,-0.84,1.05,4391,4391,4391,4391,3.15,5.52,5.39,6.36
15.3,45.47210924538386,79.78040723890692,177.14889294041444,-0.84,1.05,4331,4331,4331,4331,3.15,5.52,5.39,6.36
15.4,45.78686497834023,80.33264334523156,177.68818338146176,-0.84,1.05,4391,4391,4391,4391,3.15,5.52,5.39,6.36
15.5,46.101620711296604,80.8848794515562,178.22747382250907,-0.84,1.05,4331,4331,4331,4331,3.15,5.52,5.39,6.36
15.6,46.416376444252975,81.43711555788084,178.76676426355638,-0.84,1.05,4391,4391,4391,4391,3.15,5.52,5.39,6.36
15.7,46.731132177209346,81.98935166420549,179.3060547046037,-0.84,1.05,4331,4331,4331,4331,3.15,5.52,5.39,6.36
15.8,47.04588791016572,82.54158777053013,179.845345145651,-0.84,1.05,4391,4391,4391,4391,3.15,5.52,5.39,6.36
15.9,47.36064364312209,83.09382387685477,180.38463558669832,-0.84,1.05,4331,4331,4331,4331,3.15,5.52,5.39,6.36
16.0,47.67539937607846,83.64605998317941,180.92392602774564,-0.84,1.05,4391,4391,4391,4391,3.15,5.52,5.39,6.36
16.1,47.99015510903483,84.19829608950405,181.46321646879295,-0.84,1.05,4331,4331,4331,4331,3.15,5.52,5.39,6.36
16.2,48.3049108419912,84.7505321958287,182.00250690984026,-0.84,1.05,4391,4391,4391,4391,3.15,5.52,5.39,6.36
16.3,48.61966657494757,85.30276830215334,182.54179735088758,-0.84,1.05,4331,4331,4331,4331,3.15,5.52,5.39,6.36
16.4,48.934422307903944,85.85500440847798,183.0810877919349,-0.84,1.05,4391,4391,4391,4391,3.15,5.52,5.39,6.36
16.5,49.249178040860315,86.40724051480262,183.6203782329822,-0.84,1.05,4331,4331,4331,4331,3.15,5.52,5.39,6.36
16.6,49.563933773816686,86.95947662112727,184.15966867402952,-0.84,1.05,4391,4391,4391,4391,3.15,5.52,5.39,6.36
16.7,49.87868950677306,87.51171272745191,184.69895911507683,-0.84,1.05,4331,4331,4331,4331,3.15,5.52,5.39,6.36
16.8,50.19344523972943,88.06394883377655,185.23824955612415,-0.84,1.05,4391,4391,4391,4391,3.15,5.52,5.39,6.36
16.9,50.5082009726858,88.61618494010119,185.77753999717146,-0.84,1.05,4331,4331,4331,4331,3.15,5.52,5.39,6.36
17.0,50.82295670564217,89.16842104642583,186.31683043821877,-0.84,1.05,4391,4391,4391,4391,3.15,5.52,5.39,6.36
17.1,51.13771243859854,89.72065715275048,186.8561208792661,-0.84,1.05,4331,4331,4331,4331,3.15,5.52,5.39,6.36
17.2,51.45246817155491,90.27289325907512,187.3954113203134,-0.84,1.05,4391,4391,4391,4391,3.15,5.52,5.39,6.36
17.3,51.76722390451128,90.82512936539976,187.9347017613607,-0.84,1.05,4331,4331,4331,4331,3.15,5.52,5.39,6.36
17.4,52.081979637467654,91.3773654717244,188.47399220240803,-0.84,1.05,4391,4391,4391,4391,3.15,5.52,5.39,6.36
17.5,52.396735370424025,91.92960157804904,189.01328264345534,-0.84,1.05,4331,4331,4331,4331,3.15,5.52,5.39,6.36
17.6,52.711491103380396,92.48183768437369,189.55257308450265,-0.85,1.05,4391,4391,4391,4391,3.15,5.52,5.39,6.36
17.7,53.02624683633677,93.03407379069833,190.09186352554997,-0.85,1.05,4331,4331,4331,4331,3.15,5.52,5.39,6.36
17.8,53.34100256929314,93.58630989702297,190.63115396659728,-0.85,1.05,4391,4391,4391,4391,3.15,5.52,5.39,6.36
17.9,53.65575830224951,94.13854600334761,191.1704444076446,-0.85,1.05,4331,4331,4331,4331,3.15,5.52,5.39,6.36
18.0,53.97051403520588,94.69078210967226,191.7097348486919,-0.85,1.05,4391,4391,4391,4391,3.15,5.52,5.39,6.36
